"Total Time (s)","Cycle Elapsed Time (s)","Total Cycles","Elapsed Cycles","Step","Total Cycle Count(8800 (0,4) Waveform)","Position(8800 (0,4):Position) (mm)","Load(8800 (0,4):Load) (N)",
0,0,1,1,1,1,56.3651739340486,8.45103235471479,
0.01,0.01,1,1,1,1,56.3645335298166,8.51284185502673,
0.02,0.02,1,1,1,1,56.3645289879426,8.6022709222676,
0.031,0.031,1,1,1,1,56.3631346326291,8.56566163578928,
0.041,0.041,1,1,1,1,56.3654464464877,8.50741073874597,
0.051,0.051,1,1,1,1,56.3644744854548,8.61024981620868,
0.062,0.062,1,1,1,1,56.3647969585078,8.60417243437506,
0.072,0.072,1,1,1,1,56.3639385443245,8.51356268968184,
0.083,0.083,1,1,1,1,56.3646607022882,8.39187005753284,
0.094,0.094,1,1,1,1,56.3636524062634,8.51332241146347,
0.104,0.104,1,1,1,1,56.3646652441622,8.64559971340451,
0.115,0.115,1,1,1,1,56.3665047031263,8.56839169347732,
0.126,0.126,1,1,1,1,56.3649059634834,8.61440082956743,
0.136,0.136,1,1,1,1,56.3649468403493,8.55639021074249,
0.147,0.147,1,1,1,1,56.364419982967,8.55968367942533,
0.166,0.166,1,1,1,1,56.3643654804791,8.5416379566801,
0.177,0.177,1,1,1,1,56.3655509095894,8.61955852580659,
0.187,0.187,1,1,1,1,56.3655009489755,8.62863938536985,
0.197,0.197,1,1,1,1,56.3651012640648,8.48460087891236,
0.207,0.207,1,1,1,1,56.3656326633211,8.54624881283608,
0.218,0.218,1,1,1,1,56.364728830398,8.6350440427078,
0.228,0.228,1,1,1,1,56.365982387618,8.40404553483959,
0.238,0.238,1,1,1,1,56.3655509095894,8.58653269896432,
0.249,0.249,1,1,1,1,56.364415441093,8.52261040742188,
0.259,0.259,1,1,1,1,56.3643927317231,8.59194310160556,
0.269,0.269,1,1,1,1,56.3636342387675,8.44262675979972,
0.279,0.279,1,1,1,1,56.3645017366987,8.61206847375807,
0.29,0.29,1,1,1,1,56.3638567905928,8.66960682160207,
0.3,0.3,1,1,1,1,56.3649241309794,8.49501155413246,
0.31,0.31,1,1,1,1,56.3646289091703,8.57437379256917,
0.32,0.32,1,1,1,1,56.3652284365364,8.6123916065345,
0.33,0.33,1,1,1,1,56.364724288524,8.44774717148776,
0.34,0.34,1,1,1,1,56.3647833328858,8.49902171474251,
0.35,0.35,1,1,1,1,56.3649650078452,8.65471785751889,
0.361,0.361,1,1,1,1,56.3644563179589,8.60259819777194,
0.371,0.371,1,1,1,1,56.3654555302357,8.46949235025032,
0.381,0.381,1,1,1,1,56.3655917864552,8.68894507545302,
0.391,0.391,1,1,1,1,56.3646516185402,8.61329886394524,
0.401,0.401,1,1,1,1,56.3634207706901,8.49541754146695,
0.411,0.411,1,1,1,1,56.36409296804,8.43412173941497,
0.418,0.418,1,1,1,1,56.3626395683646,8.56028851769916,
0.421,0.421,1,1,1,1,56.364415441093,8.58311909117229,
0.431,0.431,1,1,1,1,56.3645789485565,8.50670233227457,
0.441,0.441,1,1,1,1,56.3644699435808,8.62346926094697,
0.451,0.451,1,1,1,1,56.3660096388619,8.65562097220173,
0.461,0.461,1,1,1,1,56.3655418258414,8.61242889108563,
0.471,0.471,1,1,1,1,56.3661277275855,8.65786218799722,
0.482,0.482,1,1,1,1,56.365024052207,8.66623049836117,
0.492,0.492,1,1,1,1,56.3640611749221,8.55492782779275,
0.502,0.502,1,1,1,1,56.3655599933373,8.48791091850681,
0.512,0.512,1,1,1,1,56.3661504369555,8.68231671080831,
0.522,0.522,1,1,1,1,56.3671996098461,8.48791091850681,
0.532,0.532,1,1,1,1,56.3668044668094,8.47718539596609,
0.542,0.542,1,1,1,1,56.3656054120772,8.5925562253352,
0.552,0.552,1,1,1,1,56.3656417470691,8.52441249405966,
0.562,0.562,1,1,1,1,56.3646334510443,8.48516843263506,
0.572,0.572,1,1,1,1,56.3648060422557,8.67828169383084,
0.583,0.583,1,1,1,1,56.3640339236782,8.58095658720695,
0.593,0.593,1,1,1,1,56.3645289879426,8.42256352856576,
0.603,0.603,1,1,1,1,56.3637387018691,8.62207316164368,
0.613,0.613,1,1,1,1,56.3646107416744,8.64339992488804,
0.62,0.62,1,1,1,1,56.3646334510443,8.81132540043392,
0.623,0.623,1,1,1,1,56.3644381504629,8.47167556785517,
0.633,0.633,1,1,1,1,56.3646243672963,8.61455411049984,
0.643,0.643,1,1,1,1,56.3645834904304,8.59122226695045,
0.653,0.653,1,1,1,1,56.3637023668773,8.61666690173034,
0.663,0.663,1,1,1,1,56.3654146533698,8.58157799639239,
0.673,0.673,1,1,1,1,56.3657371264228,8.6232289827286,
0.683,0.683,1,1,1,1,56.3652693134023,8.4812825538621,
0.693,0.693,1,1,1,1,56.3655963283292,8.60903599693311,
0.703,0.703,1,1,1,1,56.3647469978939,8.57932435241319,
0.714,0.714,1,1,1,1,56.3655009489755,8.54634823830575,
0.724,0.724,1,1,1,1,56.3647878747598,8.53484802564718,
0.734,0.734,1,1,1,1,56.3660686832237,8.71834187265232,
0.744,0.744,1,1,1,1,56.3661141019636,8.48661838740109,
0.754,0.754,1,1,1,1,56.3658960920123,8.57742284030574,
0.764,0.764,1,1,1,1,56.365986929492,8.71630365052407,
0.774,0.774,1,1,1,1,56.3656054120772,8.53790950156745,
0.784,0.784,1,1,1,1,56.3649014216094,8.54401173976849,
0.794,0.794,1,1,1,1,56.3646834116581,8.6253293457754,
0.804,0.804,1,1,1,1,56.3643563967312,8.49009413611166,
0.814,0.814,1,1,1,1,56.3643609386052,8.4693224984063,
0.824,0.824,1,1,1,1,56.3638840418367,8.54256178500246,
0.835,0.835,1,1,1,1,56.3644926529507,8.60052269109256,
0.845,0.845,1,1,1,1,56.3629211645517,8.49018941885343,
0.855,0.855,1,1,1,1,56.3635751944057,8.60500097995564,
0.865,0.865,1,1,1,1,56.3644426923369,8.59901888086379,
0.875,0.875,1,1,1,1,56.3645925741784,8.56585634400072,
0.885,0.885,1,1,1,1,56.364724288524,8.71954740647207,
0.895,0.895,1,1,1,1,56.3655736189593,8.65105982878059,
0.905,0.905,1,1,1,1,56.3652829390242,8.52815337735602,
0.915,0.915,1,1,1,1,56.3663820725287,8.62737585335945,
0.925,0.925,1,1,1,1,56.3664774518824,8.68557289494002,
0.935,0.935,1,1,1,1,56.3661186438376,8.42542615354669,
0.943,0.943,1,1,1,1,56.3672722798299,8.62104162239585,
0.945,0.945,1,1,1,1,56.3659051757602,8.74197199261071,
0.955,0.955,1,1,1,1,56.3659278851302,8.60511697633693,
0.966,0.966,1,1,1,1,56.3657098751789,8.52626429343227,
0.976,0.976,1,1,1,1,56.3646834116581,8.53020817039588,
0.986,0.986,1,1,1,1,56.3659460526261,8.62722671515495,
0.996,0.996,1,1,1,1,56.3657235008008,8.50134578509606,
1.006,1.006,1,1,1,1,56.3654146533698,8.46391209576505,
1.016,1.016,1,1,1,1,56.3651012640648,8.53104500143227,
1.025,1.025,1,1,1,1,56.3644517760849,8.28874513184483,
1.026,1.026,1,1,1,1,56.3644426923369,8.42930374686385,
1.036,1.036,1,1,1,1,56.3639521699465,8.4501996664063,
1.046,1.046,1,1,1,1,56.3647061210281,8.51123447660039,
1.056,1.056,1,1,1,1,56.3648378353736,8.42176812480839,
1.066,1.066,1,1,1,1,56.3637568693651,8.38508426922781,
1.07,1.07,1,1,1,1,56.3644336085889,8.57648658379967,
1.076,1.076,1,1,1,1,56.3640793424181,8.6244966574669,
1.086,1.086,1,1,1,1,56.3645562391865,8.47924433173385,
1.096,1.096,1,1,1,1,56.3638840418367,8.44589122938724,
1.106,1.106,1,1,1,1,56.3637069087512,8.65750591339757,
1.116,1.116,1,1,1,1,56.3645744066825,8.52048933073557,
1.126,1.126,1,1,1,1,56.3659006338863,8.45439210704408,
1.136,1.136,1,1,1,1,56.3656962495569,8.59285035901631,
1.146,1.146,1,1,1,1,56.3659097176342,8.62545362761248,
1.157,1.157,1,1,1,1,56.3656099539512,8.48953072511686,
1.167,1.167,1,1,1,1,56.3653011065202,8.57105132479101,
1.177,1.177,1,1,1,1,56.3644699435808,8.53757808333522,
1.187,1.187,1,1,1,1,56.3654555302357,8.51025265008739,
1.197,1.197,1,1,1,1,56.3658234220285,8.53180726336641,
1.207,1.207,1,1,1,1,56.3656190376991,8.58823950286033,
1.217,1.217,1,1,1,1,56.3655690770853,8.39847356581013,
1.227,1.227,1,1,1,1,56.365355609008,8.60935498698164,
1.234,1.234,1,1,2,1,56.3648560028696,8.47043689221219,
1.234,0,1,1,2,1,56.3648560028696,8.47043689221219,
1.252,0.018,1,1,2,1,56.3626441102386,8.37250694731447,
1.262,0.028,1,1,2,1,56.3517935732872,8.30613216085349,
1.272,0.038,1,1,2,1,56.3407931544942,7.98371193362309,
1.282,0.048,1,1,2,1,56.3296201444898,7.93635641096452,
1.292,0.0580000000000001,1,1,2,1,56.3189649081198,8.01283531078079,
1.302,0.0680000000000001,1,1,2,1,56.3113890623119,7.63391656041003,
1.312,0.0780000000000001,1,1,2,1,56.3004204366369,7.72321306035801,
1.322,0.0880000000000001,1,1,2,1,56.289074835421,7.96233131491599,
1.332,0.0980000000000001,1,1,2,1,56.2785603971445,7.63424383591436,
1.342,0.108,1,1,2,1,56.2698082059744,7.64059463778958,
1.352,0.118,1,1,2,1,56.2597888319623,7.8015603304585,
1.362,0.128,1,1,2,1,56.2496877042185,7.49543345207039,
1.372,0.138,1,1,2,1,56.2389280047468,7.38524103257995,
1.382,0.148,1,1,2,1,56.2293628181333,7.59779197309635,
1.392,0.158,1,1,2,1,56.2198067152677,7.36330943106176,
1.402,0.168,1,1,2,1,56.2100553118208,7.36246845729746,
1.413,0.179,1,1,2,1,56.1972063503157,7.41578950813627,
1.423,0.189,1,1,2,1,56.1901119431503,7.2668542972975,
1.433,0.199,1,1,2,1,56.1771903116615,7.19929883338417,
1.443,0.209,1,1,2,1,56.1693101602966,7.19748846129059,
1.453,0.219,1,1,2,1,56.1584459977232,7.17687838997343,
1.463,0.229,1,1,2,1,56.148476584325,6.92413884607057,
1.473,0.239,1,1,2,1,56.1385389640447,6.91641680125948,
1.483,0.249,1,1,2,1,56.1287603093538,6.78740811163387,
1.493,0.259,1,1,2,1,56.1166880083003,6.64422714985229,
1.503,0.269,1,1,2,1,56.107372624756,6.83492520068065,
1.513,0.279,1,1,2,1,56.0975576350732,6.93997235211562,
1.523,0.289,1,1,2,1,56.0881196209313,6.65730159911398,
1.533,0.299,1,1,2,1,56.0777686901183,6.77861724302382,
1.544,0.31,1,1,2,1,56.0664457982724,6.59918741209147,
1.554,0.32,1,1,2,1,56.0548821871052,6.38827699182464,
1.564,0.33,1,1,2,1,56.0431323591046,6.41941373474317,
1.574,0.34,1,1,2,1,56.0347480597273,6.41121113349534,
1.584,0.35,1,1,2,1,56.0251102031301,6.28864024303091,
1.594,0.36,1,1,2,1,56.0149409472765,6.17452051748849,
1.604,0.37,1,1,2,1,56.0060979186266,6.33644318030299,
1.614,0.38,1,1,2,1,55.9963147220618,6.12421537256303,
1.624,0.39,1,1,2,1,55.9866359885986,5.97597199728405,
1.634,0.4,1,1,2,1,55.9755765254439,5.97158484843483,
1.644,0.41,1,1,2,1,55.9653209739846,5.69059604296178,
1.654,0.42,1,1,2,1,55.9542978458217,5.62814441982488,
1.664,0.43,1,1,2,1,55.9448053291919,5.7468957151628,
1.675,0.441,1,1,2,1,55.9336822798014,5.55428372404328,
1.685,0.451,1,1,2,1,55.923740117647,5.39560895990468,
1.695,0.461,1,1,2,1,55.9142521428913,5.43368062933275,
1.705,0.471,1,1,2,1,55.903651409009,5.36786511113866,
1.715,0.481,1,1,2,1,55.8944495723144,5.21974601769677,
1.725,0.491,1,1,2,1,55.8840623065095,5.36417394057714,
1.735,0.501,1,1,2,1,55.8732980651638,5.17178979949227,
1.745,0.511,1,1,2,1,55.8642869871765,5.08482979808156,
1.755,0.521,1,1,2,1,55.85500339675,5.05136484208157,
1.765,0.531,1,1,2,1,55.8449522296201,4.85161907351317,
1.775,0.541,1,1,2,1,55.834292451376,4.63524025241446,
1.785,0.551,1,1,2,1,55.8226243771072,4.61716967330181,
1.796,0.562,1,1,2,1,55.8134316241605,4.7146439181302,
1.806,0.572,1,1,2,1,55.8040344868844,4.41814888211643,
1.816,0.582,1,1,2,1,55.7920076045707,4.34449946545788,
1.826,0.592,1,1,2,1,55.7804485352776,4.3076706144007,
1.836,0.602,1,1,2,1,55.7708788067901,4.20334015489293,
1.846,0.612,1,1,2,1,55.7607095509365,4.18028587411304,
1.856,0.622,1,1,2,1,55.7516121773435,4.05198973368674,
1.866,0.632,1,1,2,1,55.7402211573878,3.92519326076131,
1.876,0.642,1,1,2,1,55.7303834583351,3.94216601697967,
1.886,0.652,1,1,2,1,55.7198145175708,3.83858124849444,
1.896,0.662,1,1,2,1,55.7103628778069,3.81027398873361,
1.906,0.672,1,1,2,1,55.7023146771045,3.65809087921893,
1.916,0.682,1,1,2,1,55.68930675001,3.67655087475445,
1.927,0.693,1,1,2,1,55.6825438996455,3.50095720986023,
1.937,0.703,1,1,2,1,55.6706351060555,3.29943835374938,
1.947,0.713,1,1,2,1,55.6590033667785,3.46624943548936,
1.957,0.723,1,1,2,1,55.6505691067874,3.06950038422432,
1.967,0.733,1,1,2,1,55.6420212999466,2.96916765714289,
1.977,0.743,1,1,2,1,55.6303441419298,3.02285741076506,
1.987,0.753,1,1,2,1,55.6208379996781,2.93509786286908,
1.997,0.763,1,1,2,1,55.6096286546818,2.76684096909097,
2.007,0.773,1,1,2,1,55.6000543843203,2.85338669771139,
2.018,0.784,1,1,2,1,55.5873189696649,2.74010794593326,
2.029,0.795,1,1,2,1,55.5759733684491,2.54151799844979,
2.039,0.805,1,1,2,1,55.5677116996694,2.29072139393341,
2.05,0.816,1,1,2,1,55.5565114384211,2.40998224480339,
2.06,0.826,1,1,2,1,55.5468554143278,2.4049364022176,
2.071,0.837,1,1,2,1,55.5353690150184,2.23143481491436,
2.082,0.848,1,1,2,1,55.5250226260794,1.97823957094217,
2.092,0.858,1,1,2,1,55.5153802276081,2.1546824950565,
2.103,0.869,1,1,2,1,55.5030944584773,1.98786312786071,
2.114,0.88,1,1,2,1,55.4912356255011,1.9415557153616,
2.124,0.89,1,1,2,1,55.4828922029896,1.79743849707395,
2.135,0.901,1,1,2,1,55.4714512224201,1.56027146735825,
2.146,0.912,1,1,2,1,55.4601419561961,1.74168152222821,
2.156,0.922,1,1,2,1,55.4503405921354,1.46365062447787,
2.167,0.933,1,1,2,1,55.4397171488832,1.43342113897008,
2.178,0.944,1,1,2,1,55.4273223747767,1.32975765865469,
2.188,0.954,1,1,2,1,55.4178389418949,1.21599420771192,
2.199,0.965,1,1,2,1,55.4080784547,1.05438224949013,
2.209,0.975,1,1,2,1,55.3951704488331,1.0924580616461,
2.22,0.986,1,1,2,1,55.3867861494559,0.784645093001481,
2.231,0.997,1,1,2,1,55.3738327248491,0.697726518869794,
2.241,1.007,1,1,2,1,55.363186572227,0.902961401909589,
2.252,1.018,1,1,2,1,55.3520408134666,0.854118639933868,
2.263,1.029,1,1,2,1,55.3429207305036,0.567189162647998,
2.273,1.039,1,1,2,1,55.3325925090605,0.460596773705225,
2.284,1.05,1,1,2,1,55.3224550463248,0.353461687407166,
2.295,1.061,1,1,2,1,55.3110413169992,0.30115146217668,
2.305,1.071,1,1,2,1,55.300436041243,0.387539767136791,
2.316,1.082,1,1,2,1,55.2906028840643,-0.00222464488388144,
2.326,1.092,1,1,2,1,55.2789393516695,0.11470385017674,
2.337,1.103,1,1,2,1,55.266203937014,-0.0310083183535429,
2.348,1.114,1,1,2,1,55.2579558938563,-0.201800561608254,
2.358,1.124,1,1,2,1,55.2479910223321,-0.444701126741625,
2.369,1.135,1,1,2,1,55.2362048593396,-0.476252142450454,
2.38,1.146,1,1,2,1,55.2256222929533,-0.625199781472936,
2.39,1.156,1,1,2,1,55.2158073032706,-0.655321556055249,
2.401,1.167,1,1,2,1,55.2035169922658,-0.64855648138974,
2.412,1.178,1,1,2,1,55.1916172824237,-0.701923102235477,
2.422,1.188,1,1,2,1,55.1837916335466,-0.863721483212894,
2.433,1.199,1,1,2,1,55.1740674813436,-1.06434551009671,
2.443,1.209,1,1,2,1,55.162026973408,-0.959998479677335,
2.454,1.22,1,1,2,1,55.1500182585902,-1.20495798057847,
2.465,1.231,1,1,2,1,55.1399807170822,-1.46463245099086,
2.475,1.241,1,1,2,1,55.1282581403256,-1.36770918897356,
2.486,1.252,1,1,2,1,55.1184113575249,-1.3479235205091,
2.497,1.263,1,1,2,1,55.1093911957897,-1.58193793429065,
2.507,1.273,1,1,2,1,55.0967102836221,-1.90614367724722,
2.518,1.284,1,1,2,1,55.0868180820816,-1.97118036259555,
2.529,1.295,1,1,2,1,55.0757495351789,-1.67033131955579,
2.539,1.305,1,1,2,1,55.0642449683735,-1.82765141167012,
2.55,1.316,1,1,2,1,55.0544163530688,-2.12887330022115,
2.561,1.327,1,1,2,1,55.0417172734053,-2.26796953229043,
2.571,1.337,1,1,2,1,55.0337099495688,-2.27470975058853,
2.582,1.348,1,1,2,1,55.0222916783692,-2.24702390001314,
2.592,1.358,1,1,2,1,55.0118090332106,-2.45973640691776,
2.603,1.369,1,1,2,1,55.000372594515,-2.68230446350347,
2.614,1.38,1,1,2,1,54.99063481669,-2.79612591263688,
2.624,1.39,1,1,2,1,54.9806790289138,-2.74177746527815,
2.635,1.401,1,1,2,1,54.9701418812673,-2.82150012104242,
2.646,1.412,1,1,2,1,54.9574655109737,-3.03301537958308,
2.656,1.422,1,1,2,1,54.9466785602581,-3.09131184663332,
2.667,1.433,1,1,2,1,54.9373450092178,-3.15141454304925,
2.678,1.444,1,1,2,1,54.926939575917,-3.32715734614798,
2.688,1.454,1,1,2,1,54.9162480045551,-3.24498219546516,
2.699,1.465,1,1,2,1,54.905601851933,-3.51979419363492,
2.709,1.475,1,1,2,1,54.8948739455792,-3.56213287280302,
2.72,1.486,1,1,2,1,54.8836010143471,-3.67699414664007,
2.731,1.497,1,1,2,1,54.8731683298023,-3.75981142014784,
2.741,1.507,1,1,2,1,54.8615547580213,-3.93823456819978,
2.752,1.518,1,1,2,1,54.8517806452045,-3.98178292391553,
2.763,1.529,1,1,2,1,54.842179123599,-4.09858299441116,
2.773,1.539,1,1,2,1,54.8299342313341,-4.0896347021408,
2.784,1.55,1,1,2,1,54.8210049070785,-4.30240934996396,
2.795,1.561,1,1,2,1,54.8096774733586,-4.61465503746472,
2.805,1.571,1,1,2,1,54.7993220006716,-4.32649516999168,
2.816,1.582,1,1,2,1,54.7877265963865,-4.42740787897952,
2.826,1.592,1,1,2,1,54.7778026017282,-4.80747416497939,
2.837,1.603,1,1,2,1,54.7669611485247,-4.92298998982511,
2.848,1.614,1,1,2,1,54.755565586695,-4.92581533025492,
2.858,1.624,1,1,2,1,54.7468315630208,-4.92805240332251,
2.869,1.635,1,1,2,1,54.7340234783816,-4.92110504862927,
2.88,1.646,1,1,2,1,54.7234136607514,-5.2774666455685,
2.89,1.656,1,1,2,1,54.7145933414715,-5.27827447750957,
2.901,1.667,1,1,2,1,54.7024211191903,-5.34704376069846,
2.912,1.678,1,1,2,1,54.6908257149053,-5.34092909431371,
2.922,1.688,1,1,2,1,54.6811469814421,-5.71183166619227,
2.933,1.699,1,1,2,1,54.6702828188687,-5.78235332328411,
2.944,1.71,1,1,2,1,54.658905424535,-5.8400159529652,
2.954,1.72,1,1,2,1,54.6492494004417,-5.82772862200506,
2.965,1.731,1,1,2,1,54.6395388738607,-5.91741868110382,
2.975,1.741,1,1,2,1,54.6281796470229,-6.22740658189748,
2.986,1.752,1,1,2,1,54.6183101548523,-6.16992208951622,
2.997,1.763,1,1,2,1,54.6080909383849,-6.11655546867048,
3.007,1.773,1,1,2,1,54.5964773666039,-6.19371377586283,
3.018,1.784,1,1,2,1,54.586094642673,-6.51420763461836,
3.029,1.795,1,1,2,1,54.5737225779364,-6.59316802844849,
3.039,1.805,1,1,2,1,54.5628902084809,-6.50926536023015,
3.05,1.816,1,1,2,1,54.5549510127542,-6.56818737919373,
3.061,1.827,1,1,2,1,54.5430603866601,-6.76765144226473,
3.071,1.837,1,1,2,1,54.5321825984647,-6.96856960282965,
3.082,1.848,1,1,2,1,54.519538021289,-6.97252590797697,
3.092,1.858,1,1,2,1,54.5115761161924,-7.11399592313463,
3.103,1.869,1,1,2,1,54.5007482886109,-7.1460233525523,
3.114,1.88,1,1,2,1,54.4901884315945,-7.39274765554009,
3.124,1.89,1,1,2,1,54.4783886429801,-7.59365753064921,
3.135,1.901,1,1,2,1,54.4696092005661,-7.32546561166836,
3.146,1.912,1,1,2,1,54.4575323576386,-7.47672903558859,
3.156,1.922,1,1,2,1,54.4483350628179,-7.99296264503036,
3.167,1.933,1,1,2,1,54.4357222787601,-7.88955187111705,
3.178,1.944,1,1,2,1,54.423513721487,-7.96610119730767,
3.188,1.954,1,1,2,1,54.413771401788,-8.01521737932499,
3.199,1.965,1,1,2,1,54.4036566484222,-8.21131340461088,
3.21,1.976,1,1,2,1,54.3929242001944,-8.23977394530412,
3.22,1.986,1,1,2,1,54.3824460969098,-8.35099376131448,
3.231,1.997,1,1,2,1,54.3722632154343,-8.42296123044444,
3.241,2.007,1,1,2,1,54.3606087667874,-8.49096410897128,
3.252,2.018,1,1,2,1,54.3502578359744,-8.53159598424336,
3.263,2.029,1,1,2,1,54.3396798114621,-8.69717667579617,
3.273,2.039,1,1,2,1,54.3313727239426,-8.6745656669019,
3.284,2.05,1,1,2,1,54.3196546890599,-8.88743145473892,
3.295,2.061,1,1,2,1,54.3088677383442,-8.97154540208031,
3.305,2.071,1,1,2,1,54.2971996640754,-9.08586812128998,
3.316,2.082,1,1,2,1,54.2860811565589,-9.1518700622397,
3.327,2.093,1,1,2,1,54.2753214570871,-9.14913171909585,
3.337,2.103,1,1,2,1,54.2650477381319,-9.25661065180986,
3.348,2.114,1,1,2,1,54.2565498919049,-9.42456098372315,
3.358,2.124,1,1,2,1,54.2440006940829,-9.55516462359139,
3.369,2.135,1,1,2,1,54.2333590833348,-9.52158367121012,
3.38,2.146,1,1,2,1,54.2236076798879,-9.68747092462774,
3.39,2.156,1,1,2,1,54.2110811914358,-9.86899283315108,
3.401,2.167,1,1,2,1,54.2017067635297,-9.75364686014938,
3.412,2.178,1,1,2,1,54.1903929554317,-10.0445616416779,
3.422,2.188,1,1,2,1,54.1814681730502,-9.88895249618747,
3.433,2.199,1,1,2,1,54.1701316555823,-10.2342695805374,
3.444,2.21,1,1,2,1,54.1592947442528,-10.3536381423329,
3.454,2.22,1,1,2,1,54.1488575178341,-10.2174542479794,
3.465,2.231,1,1,2,1,54.137897975907,-10.2966424918442,
3.475,2.241,1,1,2,1,54.1275697544639,-10.3560367817887,
3.486,2.252,1,1,2,1,54.1170280649435,-10.5018856603398,
3.497,2.263,1,1,2,1,54.1055416656341,-10.7391728291647,
3.507,2.273,1,1,2,1,54.0974435043179,-10.756700710922,
3.518,2.284,1,1,2,1,54.0853030751546,-10.8825402137019,
3.529,2.295,1,1,2,1,54.0753245780083,-10.8420781902738,
3.539,2.305,1,1,2,1,54.0629979320116,-11.1968862642494,
3.55,2.316,1,1,2,1,54.0518703407471,-11.1716694795042,
3.561,2.327,1,1,2,1,54.0415920799178,-11.0753551984886,
3.571,2.337,1,1,2,1,54.0310594741454,-11.3173236498439,
3.582,2.348,1,1,2,1,54.0202134790679,-11.5451778272337,
