"Total Time (s)","Cycle Elapsed Time (s)","Total Cycles","Elapsed Cycles","Step","Loop 1","Total Cycle Count(8800 (0,4) Waveform)","Position(8800 (0,4):Position) (mm)","Load(8800 (0,4):Load) (N)",
67.11,0,1,1,1,4,1,44.8349591663075,-19.1694708307252,
67.12,0.0100000000000051,1,1,1,4,1,44.8336556484736,-18.9784413616646,
67.131,0.0210000000000008,1,1,1,4,1,44.834473185791,-18.9163087285763,
67.141,0.0310000000000059,1,1,1,4,1,44.8337237765834,-18.9383397555641,
67.152,0.0420000000000016,1,1,1,4,1,44.8353633930922,-19.0973997933977,
67.162,0.0520000000000067,1,1,1,4,1,44.8346457770025,-19.1735514177096,
67.173,0.0630000000000024,1,1,1,4,1,44.8346230676325,-18.9961970934566,
67.183,0.0730000000000075,1,1,1,4,1,44.8349409988115,-19.0283612328951,
67.194,0.0840000000000032,1,1,1,4,1,44.8349546244335,-19.0173291484896,
67.204,0.0940000000000083,1,1,1,4,1,44.8343596389414,-19.1402935981048,
67.215,0.105000000000004,1,1,1,4,1,44.8361718466616,-19.0307308732556,
67.226,0.116,1,1,1,4,1,44.8355269005557,-18.925327447221,
67.236,0.126000000000005,1,1,1,4,1,44.8367713740277,-19.0893339021707,
67.247,0.137,1,1,1,4,1,44.8342324664698,-19.0624641689922,
67.257,0.147000000000006,1,1,1,4,1,44.8340099146445,-18.921996693987,
67.268,0.158000000000001,1,1,1,4,1,44.8338691165509,-18.9452373975225,
67.278,0.168000000000006,1,1,1,4,1,44.8333740522865,-19.0667726060112,
67.293,0.183000000000007,1,1,1,4,1,44.8350772550311,-18.9439282955052,
67.304,0.194000000000003,1,1,1,4,1,44.8345640232707,-18.8807144104342,
67.314,0.204000000000008,1,1,1,4,1,44.8353270581003,-19.1007968302781,
67.325,0.215000000000003,1,1,1,4,1,44.8356359055313,-19.0552723933526,
67.335,0.225000000000009,1,1,1,4,1,44.8366442015561,-18.9683123919419,
67.346,0.236000000000004,1,1,1,4,1,44.8350227525433,-18.8059837417929,
67.357,0.247,1,1,1,4,1,44.8350863387791,-18.9859852691759,
67.367,0.257000000000005,1,1,1,4,1,44.8350545456612,-19.0381877834809,
67.378,0.268000000000001,1,1,1,4,1,44.8339962890225,-19.0565069262677,
67.388,0.278000000000006,1,1,1,4,1,44.8343369295715,-18.9333104838899,
67.399,0.289000000000001,1,1,1,4,1,44.8345685651447,-18.9313219744965,
67.409,0.299000000000007,1,1,1,4,1,44.8338146140631,-19.0768021502642,
67.42,0.310000000000002,1,1,1,4,1,44.8340598752583,-18.9877127867114,
67.43,0.320000000000007,1,1,1,4,1,44.835722201137,-18.8167092643337,
67.441,0.331000000000003,1,1,1,4,1,44.8347684076001,-18.959857084292,
67.451,0.341000000000008,1,1,1,4,1,44.8357040336411,-19.0211984563509,
67.462,0.352000000000004,1,1,1,4,1,44.8355223586817,-19.0359092831343,
67.472,0.362000000000009,1,1,1,4,1,44.8360219648201,-18.9452001129714,
67.483,0.373000000000005,1,1,1,4,1,44.8353452255962,-19.0166787402088,
67.494,0.384,1,1,1,4,1,44.8356949498931,-19.0025147535086,
67.504,0.394000000000005,1,1,1,4,1,44.8351771762588,-18.9881477731412,
67.515,0.405000000000001,1,1,1,4,1,44.8347502401041,-19.0473763539696,
67.525,0.415000000000006,1,1,1,4,1,44.835090880653,-18.9988070120355,
67.536,0.426000000000002,1,1,1,4,1,44.8355541517996,-19.0816574273665,
67.546,0.436000000000007,1,1,1,4,1,44.8350182106693,-19.0896404640355,
67.557,0.447000000000003,1,1,1,4,1,44.8335148503801,-18.9840009025104,
67.567,0.457000000000008,1,1,1,4,1,44.8347593238521,-18.8729675092556,
67.578,0.468000000000004,1,1,1,4,1,44.8357721617509,-18.9990928602608,
67.588,0.478000000000009,1,1,1,4,1,44.8365170290845,-18.948928568084,
67.599,0.489000000000004,1,1,1,4,1,44.8370620539628,-18.8882541752175,
67.604,0.494,1,1,1,4,1,44.8380385568696,-18.8472660253458,
67.606,0.495999999999995,1,1,1,4,1,44.836362605369,-18.9111054623302,
67.616,0.506,1,1,1,4,1,44.8371438076945,-18.8857188257409,
67.626,0.516000000000005,1,1,1,4,1,44.8351362993929,-19.0001699695156,
67.637,0.527000000000001,1,1,1,4,1,44.8361582210396,-19.0945123120493,
67.647,0.537000000000006,1,1,1,4,1,44.8339735796526,-18.8591100844203,
67.658,0.548000000000002,1,1,1,4,1,44.833224170445,-18.9647910732244,
67.668,0.558000000000007,1,1,1,4,1,44.8345776488927,-19.1376132531516,
67.679,0.569000000000003,1,1,1,4,1,44.8331605842092,-19.0806921717651,
67.689,0.579000000000008,1,1,1,4,1,44.834173422108,-18.9831267869229,
67.7,0.590000000000003,1,1,1,4,1,44.8341234614941,-18.8613388720321,
67.71,0.600000000000009,1,1,1,4,1,44.8344958951609,-19.1395727634497,
67.721,0.611000000000004,1,1,1,4,1,44.8347366144822,-19.0848846124029,
67.732,0.622,1,1,1,4,1,44.8349682500554,-18.9912672472521,
67.742,0.632000000000005,1,1,1,4,1,44.834173422108,-18.9637678194324,
67.753,0.643000000000001,1,1,1,4,1,44.8341870477299,-18.8118747008709,
67.763,0.653000000000006,1,1,1,4,1,44.8350227525433,-19.1135605749471,
67.774,0.664000000000001,1,1,1,4,1,44.8352543881165,-19.0910034215155,
67.784,0.674000000000007,1,1,1,4,1,44.8330833723514,-19.0059656458518,
67.795,0.685000000000002,1,1,1,4,1,44.835113590023,-19.0228721184237,
67.805,0.695000000000007,1,1,1,4,1,44.8359538367103,-19.1465449745103,
67.816,0.706000000000003,1,1,1,4,1,44.8352589299905,-19.1180057219869,
67.826,0.716000000000008,1,1,1,4,1,44.8333286335467,-18.8486994092002,
67.837,0.727000000000004,1,1,1,4,1,44.835095422527,-18.9828989368882,
67.847,0.737000000000009,1,1,1,4,1,44.8345004370349,-19.0709816175606,
67.858,0.748000000000005,1,1,1,4,1,44.8342642595877,-19.0598211085901,
67.869,0.759,1,1,1,4,1,44.8352952649824,-18.9382196164549,
67.879,0.769000000000005,1,1,1,4,1,44.8346548607504,-19.0204320516889,
67.89,0.780000000000001,1,1,1,4,1,44.835422437454,-19.0659896304376,
67.9,0.790000000000006,1,1,1,4,1,44.8344141414292,-19.0937541928431,
67.911,0.801000000000002,1,1,1,4,1,44.8361037185518,-18.9403241222296,
67.921,0.811000000000007,1,1,1,4,1,44.8366487434301,-18.919221066292,
67.932,0.822000000000003,1,1,1,4,1,44.8360900929299,-18.9401584131135,
67.942,0.832000000000008,1,1,1,4,1,44.8358766248525,-19.0128674305381,
67.953,0.843000000000004,1,1,1,4,1,44.8350590875352,-18.994088444954,
67.963,0.853000000000009,1,1,1,4,1,44.8338918259209,-18.9625001446941,
67.974,0.864000000000004,1,1,1,4,1,44.8338146140631,-19.1433426458413,
67.985,0.875,1,1,1,4,1,44.8350454619132,-18.981030566604,
67.995,0.885000000000005,1,1,1,4,1,44.8348910381977,-18.9864243983336,
68.006,0.896000000000001,1,1,1,4,1,44.8343233039495,-19.0100213764688,
68.016,0.906000000000006,1,1,1,4,1,44.8346821119943,-19.0575343227876,
68.027,0.917000000000002,1,1,1,4,1,44.8350454619132,-19.1250152175987,
68.037,0.927000000000007,1,1,1,4,1,44.8330788304775,-19.0119726013111,
68.048,0.938000000000002,1,1,1,4,1,44.8362853935112,-18.8936687205867,
68.058,0.948000000000008,1,1,1,4,1,44.8336511065996,-19.0824528311239,
68.069,0.959000000000003,1,1,1,4,1,44.8350636294091,-19.0697387991897,
68.079,0.969000000000008,1,1,1,4,1,44.8346276095065,-19.0962978277755,
68.09,0.980000000000004,1,1,1,4,1,44.8345821907667,-18.8466114743371,
68.101,0.991,1,1,1,4,1,44.8342915108316,-18.9441644309957,
68.111,1.001,1,1,1,4,1,44.8347638657261,-19.1103913881013,
68.122,1.012,1,1,1,4,1,44.8348229100879,-19.004378981065,
68.132,1.02200000000001,1,1,1,4,1,44.834482269539,-18.9605654907634,
68.143,1.033,1,1,1,4,1,44.8352271368726,-18.9627984211031,
68.153,1.04300000000001,1,1,1,4,1,44.835118131897,-19.031310855162,
68.164,1.054,1,1,1,4,1,44.8342733433357,-19.1458572816784,
68.174,1.06400000000001,1,1,1,4,1,44.8348456194578,-18.8513466123302,
68.185,1.075,1,1,1,4,1,44.8344413926731,-18.9353238496508,
68.195,1.08500000000001,1,1,1,4,1,44.8357721617509,-19.0379557907183,
68.206,1.096,1,1,1,4,1,44.8366442015561,-19.0068894741741,
68.216,1.10600000000001,1,1,1,4,1,44.8361445954177,-18.9316948200078,
68.227,1.117,1,1,1,4,1,44.8339417865347,-18.9481331643267,
68.238,1.128,1,1,1,4,1,44.835422437454,-19.1345144926802,
68.248,1.13800000000001,1,1,1,4,1,44.8366532853041,-19.0415889630892,
68.259,1.149,1,1,1,4,1,44.8356858661451,-18.9174852633007,
68.269,1.15900000000001,1,1,1,4,1,44.8347593238521,-18.9854964272833,
68.28,1.17,1,1,1,4,1,44.834464102043,-18.9766599886664,
68.29,1.18000000000001,1,1,1,4,1,44.8360037973241,-19.0658363495051,
68.301,1.191,1,1,1,4,1,44.8350727131571,-19.0300017531447,
68.311,1.20100000000001,1,1,1,4,1,44.8342052152259,-19.0687196881256,
68.322,1.212,1,1,1,4,1,44.8339508702827,-19.1171274636715,
68.332,1.22200000000001,1,1,1,4,1,44.8343142202015,-19.0601318131828,
68.343,1.233,1,1,1,4,1,44.8339735796526,-18.9458049512452,
68.354,1.244,1,1,1,4,1,44.8368803790033,-18.9371217935607,
68.364,1.254,1,1,1,4,1,44.8350000431733,-18.9895811569956,
68.375,1.265,1,1,1,4,1,44.8347002794903,-19.0875649573561,
68.385,1.27500000000001,1,1,1,4,1,44.8346730282464,-19.0578740264757,
68.396,1.286,1,1,1,4,1,44.835413353706,-18.958962255065,
68.406,1.29600000000001,1,1,1,4,1,44.8356449892793,-19.001773205214,
68.417,1.307,1,1,1,4,1,44.8356041124134,-19.0701986419869,
68.427,1.31700000000001,1,1,1,4,1,44.8357948711208,-18.9737352227669,
68.438,1.328,1,1,1,4,1,44.8329334905099,-18.8544868000806,
68.448,1.33800000000001,1,1,1,4,1,44.8341961314779,-18.9476194660667,
68.459,1.349,1,1,1,4,1,44.8346185257586,-19.0950218675814,
68.469,1.35900000000001,1,1,1,4,1,44.8343505551934,-18.8637250833042,
68.48,1.37,1,1,1,4,1,44.83479111697,-18.9343834504168,
68.491,1.381,1,1,1,4,1,44.8336147716077,-19.0344137583613,
68.501,1.39100000000001,1,1,1,4,1,44.8344413926731,-19.04650638111,
68.512,1.402,1,1,1,4,1,44.8334648897662,-19.0695648046178,
68.522,1.41200000000001,1,1,1,4,1,44.8337237765834,-18.8738581957548,
68.533,1.423,1,1,1,4,1,44.8344141414292,-18.9540862643232,
68.543,1.43300000000001,1,1,1,4,1,44.8343505551934,-19.0675307252175,
68.554,1.444,1,1,1,4,1,44.8358675411046,-19.1027563405762,
68.564,1.45400000000001,1,1,1,4,1,44.835090880653,-18.9188233644133,
68.575,1.465,1,1,1,4,1,44.8370211770969,-18.9892331678518,
68.585,1.47500000000001,1,1,1,4,1,44.8362717678893,-19.1393531988708,
68.596,1.486,1,1,1,4,1,44.8350272944172,-19.0337550646247,
68.607,1.497,1,1,1,4,1,44.8352770974864,-18.8743346094636,
68.617,1.50700000000001,1,1,1,4,1,44.8341325452421,-19.0281458110442,
68.628,1.518,1,1,1,4,1,44.8350000431733,-19.1237682564999,
68.638,1.52800000000001,1,1,1,4,1,44.8324929287333,-19.1237268292209,
68.65,1.54000000000001,1,1,1,4,1,44.8339190771648,-19.0863552808084,
68.661,1.551,1,1,1,4,1,44.83416433836,-19.0407562747807,
68.671,1.56100000000001,1,1,1,4,1,44.8334966828841,-19.0335147864064,
68.682,1.572,1,1,1,4,1,44.8348683288278,-18.9929119102296,
68.692,1.58200000000001,1,1,1,4,1,44.8347048213643,-18.9392262993353,
68.703,1.593,1,1,1,4,1,44.8350272944172,-19.0746976444895,
68.713,1.60300000000001,1,1,1,4,1,44.8348774125757,-19.0458104028223,
68.724,1.614,1,1,1,4,1,44.8351590087628,-19.0779248295259,
68.735,1.625,1,1,1,4,1,44.8346957376163,-19.1910461576438,
68.745,1.63500000000001,1,1,1,4,1,44.8349591663075,-19.0116908958137,
68.756,1.646,1,1,1,4,1,44.8352498462425,-19.0082772880216,
68.766,1.65600000000001,1,1,1,4,1,44.8349864175514,-19.1378742450095,
68.777,1.667,1,1,1,4,1,44.8344459345471,-18.97744296424,
68.787,1.67700000000001,1,1,1,4,1,44.8354587724459,-18.843798562091,
68.798,1.688,1,1,1,4,1,44.8365806153203,-18.942913327169,
68.808,1.69800000000001,1,1,1,4,1,44.8337782790712,-19.1754197879938,
68.819,1.709,1,1,1,4,1,44.8355405261776,-19.054443847772,
68.829,1.71900000000001,1,1,1,4,1,44.8352089693767,-18.951447346649,
68.84,1.73,1,1,1,4,1,44.8334966828841,-19.0528157557062,
68.85,1.74000000000001,1,1,1,4,1,44.835735826759,-19.0100793746594,
68.861,1.751,1,1,1,4,1,44.8355995705394,-19.2137607347356,
68.872,1.762,1,1,1,4,1,44.8348592450798,-19.0517055046282,
68.882,1.77200000000001,1,1,1,4,1,44.8361037185518,-18.8592385089853,
68.893,1.783,1,1,1,4,1,44.8349864175514,-19.0248357714497,
68.903,1.79300000000001,1,1,1,4,1,44.8354769399418,-19.1429656576022,
68.914,1.804,1,1,1,4,1,44.8328835298961,-19.1314985867668,
68.924,1.81400000000001,1,1,1,4,1,44.8353861024621,-18.9955756842712,
68.935,1.825,1,1,1,4,1,44.833546643498,-18.999084574805,
68.945,1.83500000000001,1,1,1,4,1,44.8346594026244,-19.2081307675155,
68.956,1.846,1,1,1,4,1,44.8337873628192,-19.0035794345797,
68.966,1.85600000000001,1,1,1,4,1,44.8357176592631,-18.822202521533,
68.977,1.867,1,1,1,4,1,44.8342688014617,-19.1101676807946,
68.988,1.878,1,1,1,4,1,44.8351408412669,-19.005016961162,
68.998,1.88800000000001,1,1,1,4,1,44.8358312061127,-18.9795806118379,
69.009,1.899,1,1,1,4,1,44.8343505551934,-18.9501631009991,
69.019,1.90900000000001,1,1,1,4,1,44.8355359843036,-18.9328713547322,
69.03,1.92,1,1,1,4,1,44.8348774125757,-19.0795156370407,
69.04,1.93000000000001,1,1,1,4,1,44.8335966041118,-19.0450357127045,
69.051,1.941,1,1,1,4,1,44.8336102297338,-18.9719952770476,
69.061,1.95100000000001,1,1,1,4,1,44.834464102043,-18.9890923151031,
69.072,1.962,1,1,1,4,1,44.8356359055313,-19.0452718481949,
69.082,1.97200000000001,1,1,1,4,1,44.8355723192955,-18.989353306961,
69.093,1.983,1,1,1,4,1,44.8370393445928,-18.8283503297409,
69.104,1.994,1,1,1,4,1,44.8366578271781,-18.9182806670581,
69.114,2.004,1,1,1,4,1,44.8378977587761,-19.0550611142296,
69.125,2.015,1,1,1,4,1,44.8348728707017,-19.17507179885,
69.135,2.02500000000001,1,1,1,4,1,44.8349818756774,-18.9654539096889,
69.146,2.036,1,1,1,4,1,44.8336193134817,-19.0160614737513,
69.156,2.04600000000001,1,1,1,4,1,44.8354542305719,-19.0586818584168,
69.167,2.057,1,1,1,4,1,44.8349137475676,-19.0853817397512,
69.177,2.06700000000001,1,1,1,4,1,44.8343460133194,-18.8866136549679,
69.188,2.078,1,1,1,4,1,44.8354406049499,-18.849432672039,
69.198,2.08800000000001,1,1,1,4,1,44.8356449892793,-18.9849330162885,
69.209,2.099,1,1,1,4,1,44.8359720042062,-19.159362574642,
69.219,2.10900000000001,1,1,1,4,1,44.8350091269213,-19.0464566683752,
69.23,2.12,1,1,1,4,1,44.8359220435924,-18.9325026519489,
69.241,2.131,1,1,1,4,1,44.8355904867915,-19.0212688827253,
69.251,2.14100000000001,1,1,1,4,1,44.8354723980678,-19.0555168142989,
69.262,2.152,1,1,1,4,1,44.8337101509614,-19.0995125846282,
69.272,2.16200000000001,1,1,1,4,1,44.8335557272459,-18.9364713852799,
69.283,2.173,1,1,1,4,1,44.8339327027867,-18.9470643405277,
69.293,2.18300000000001,1,1,1,4,1,44.8336511065996,-19.0919272498379,
69.304,2.194,1,1,1,4,1,44.8349637081814,-18.9357712642643,
69.314,2.20400000000001,1,1,1,4,1,44.8355632355475,-18.9471554805416,
69.325,2.215,1,1,1,4,1,44.8347366144822,-18.884604431935,
69.335,2.22500000000001,1,1,1,4,1,44.8346730282464,-19.0535241621776,
69.346,2.236,1,1,1,4,1,44.834155254612,-19.0432791960736,
69.357,2.247,1,1,1,4,1,44.8351680925108,-18.9621935828293,
69.367,2.25700000000001,1,1,1,4,1,44.8346594026244,-18.9942790104376,
69.378,2.268,1,1,1,4,1,44.8346730282464,-19.0157424837027,
69.388,2.27800000000001,1,1,1,4,1,44.8344550182951,-18.9788970617339,
69.399,2.289,1,1,1,4,1,44.8337964465672,-18.9317983882054,
69.409,2.29900000000001,1,1,1,4,1,44.833855490929,-19.0179547004029,
69.42,2.31,1,1,1,4,1,44.8351362993929,-19.0951875766975,
69.43,2.32000000000001,1,1,1,4,1,44.8356086542874,-18.9472424778275,
69.441,2.331,1,1,1,4,1,44.8341870477299,-18.8907563828709,
69.451,2.34100000000001,1,1,1,4,1,44.834168880234,-19.0658404922331,
69.462,2.352,1,1,1,4,1,44.8353225162263,-18.9815732639592,
69.472,2.36200000000001,1,1,1,4,1,44.8353951862101,-19.0189613832833,
69.483,2.373,1,1,1,4,1,44.8362399747714,-18.8674701093284,
69.494,2.384,1,1,1,4,1,44.8343187620755,-18.8845671473839,
69.504,2.39400000000001,1,1,1,4,1,44.835740368633,-19.0124780141152,
69.515,2.405,1,1,1,4,1,44.8359038760965,-19.1079968913734,
69.525,2.41500000000001,1,1,1,4,1,44.8359220435924,-18.856475309474,
69.536,2.426,1,1,1,4,1,44.8341007521242,-18.8247047291863,
69.546,2.43600000000001,1,1,1,4,1,44.8351453831409,-19.0806383163024,
69.557,2.447,1,1,1,4,1,44.835113590023,-19.033614211876,
69.567,2.45700000000001,1,1,1,4,1,44.8352907231084,-18.8711529944342,
69.578,2.468,1,1,1,4,1,44.8346049001366,-18.9864285410615,
69.588,2.47800000000001,1,1,1,4,1,44.8334739735142,-18.9011007744445,
69.599,2.489,1,1,1,4,1,44.8355995705394,-19.0897978876958,
69.61,2.5,1,1,1,4,1,44.8346821119943,-18.9791539108639,
69.62,2.51000000000001,1,1,1,4,1,44.835404269958,-18.9384640374012,
69.631,2.521,1,1,1,4,1,44.8358675411046,-19.0169231611551,
69.641,2.53100000000001,1,1,1,4,1,44.8358720829786,-18.9893367360494,
69.652,2.542,1,1,1,4,1,44.8345049789089,-19.0332040818137,
69.662,2.55200000000001,1,1,1,4,1,44.8332968404288,-19.0077967315849,
69.673,2.563,1,1,1,4,1,44.8352998068564,-18.9143285046386,
69.683,2.57300000000001,1,1,1,4,1,44.8341416289901,-19.101099249415,
69.694,2.584,1,1,1,4,1,44.8355586936736,-18.9818922540078,
69.704,2.59400000000001,1,1,1,4,1,44.8354951074378,-18.8733320693111,
69.715,2.605,1,1,1,4,1,44.8352816393604,-19.0087164171793,
69.725,2.61500000000001,1,1,1,4,1,44.8361491372917,-18.940348978597,
69.736,2.626,1,1,1,4,1,44.8360810091819,-19.0198562125104,
69.747,2.637,1,1,1,4,1,44.8346276095065,-18.8669191265173,
69.757,2.64700000000001,1,1,1,4,1,44.8347684076001,-18.971552005162,
69.768,2.658,1,1,1,4,1,44.8358539154826,-19.0030698790476,
69.778,2.66800000000001,1,1,1,4,1,44.8345140626569,-19.0865375608362,
69.789,2.679,1,1,1,4,1,44.8339826634006,-18.9854467145485,
69.799,2.68900000000001,1,1,1,4,1,44.8349909594254,-19.0919728198448,
69.81,2.7,1,1,1,4,1,44.8357539942549,-19.136271009311,
69.82,2.71000000000001,1,1,1,4,1,44.8342733433357,-19.0256850306698,
69.831,2.721,1,1,1,4,1,44.8351317575189,-19.0714290321741,
69.841,2.73100000000001,1,1,1,4,1,44.834473185791,-19.1228071436264,
69.849,2.739,1,1,1,4,1,44.8321840813023,-18.9714111524133,
69.852,2.742,1,1,1,4,1,44.8334285547743,-19.0498412770719,
69.863,2.753,1,1,1,4,1,44.8327291061806,-19.1982130769159,
69.873,2.76300000000001,1,1,1,4,1,44.834486811413,-18.9756450203301,
69.884,2.774,1,1,1,4,1,44.8341007521242,-19.0046896856577,
69.894,2.78400000000001,1,1,1,4,1,44.8362445166454,-18.9910145408501,
69.905,2.795,1,1,1,4,1,44.8358993342225,-18.9872529439142,
69.915,2.80500000000001,1,1,1,4,1,44.837003009601,-18.9528807305035,
69.926,2.816,1,1,1,4,1,44.8367668321537,-18.8957607981776,
69.936,2.82600000000001,1,1,1,4,1,44.8350636294091,-19.0231206820979,
69.947,2.837,1,1,1,4,1,44.8361128022998,-19.0609727869471,
69.957,2.84700000000001,1,1,1,4,1,44.8360719254339,-19.0196242197478,
69.968,2.858,1,1,1,4,1,44.8363217285031,-18.9222369722054,
69.979,2.869,1,1,1,4,1,44.835422437454,-18.9888520368847,
69.989,2.879,1,1,1,4,1,44.8345958163886,-19.1726897303058,
70,2.89,1,1,1,4,1,44.8338236978111,-19.104939558181,
70.01,2.90000000000001,1,1,1,4,1,44.8339872052746,-18.9496618309229,
70.021,2.911,1,1,1,4,1,44.8340780427543,-18.9819046821915,
70.031,2.92100000000001,1,1,1,4,1,44.8349228313156,-19.0956929895017,
70.042,2.932,1,1,1,4,1,44.8350136687953,-18.9653420560355,
70.052,2.94200000000001,1,1,1,4,1,44.8344595601691,-18.8628219686213,
70.063,2.953,1,1,1,4,1,44.8351726343848,-18.8780340654809,
70.073,2.96300000000001,1,1,1,4,1,44.8344005158072,-19.0250221942053,
70.084,2.974,1,1,1,4,1,44.8350318362912,-19.0604839450545,
70.094,2.98400000000001,1,1,1,4,1,44.8356767823972,-18.8584762470511,
70.105,2.995,1,1,1,4,1,44.8353588512182,-19.079416211571,
70.116,3.006,1,1,1,4,1,44.8340553333843,-19.0151790727079,
70.126,3.01600000000001,1,1,1,4,1,44.8346321513805,-18.9099330703336,
70.137,3.027,1,1,1,4,1,44.8346094420106,-18.9938481667357,
70.147,3.03700000000001,1,1,1,4,1,44.8345549395227,-18.8515164641742,
70.158,3.048,1,1,1,4,1,44.8348547032058,-19.1609285257893,
70.168,3.05800000000001,1,1,1,4,1,44.8341098358722,-19.0314061379038,
70.179,3.069,1,1,1,4,1,44.8345276882788,-18.9483485861776,
70.189,3.07900000000001,1,1,1,4,1,44.834173422108,-19.0982324817062,
70.2,3.09,1,1,1,4,1,44.8351908018807,-18.9363139616196,
70.21,3.10000000000001,1,1,1,4,1,44.8352180531246,-19.1169286127322,
70.221,3.111,1,1,1,4,1,44.8343868901853,-18.8336571641846,
