"Total Time (s)","Cycle Elapsed Time (s)","Total Cycles","Elapsed Cycles","Step","Total Cycle Count(8800 (0,4) Waveform)","Position(8800 (0,4):Position) (mm)","Load(8800 (0,4):Load) (N)",
26.186,0,1,1,7,1,48.019530446253,-6.67824723139127,
26.196,0.0100000000000016,1,1,7,1,48.018894583895,-6.58907087055248,
26.203,0.0169999999999995,1,1,7,1,48.0202298948467,-6.67888935421623,
26.207,0.0210000000000008,1,1,7,1,48.0187537858014,-6.53067497803257,
26.217,0.0310000000000024,1,1,7,1,48.0193487712935,-6.55468622895804,
26.228,0.0420000000000016,1,1,7,1,48.0190217563666,-6.58714450207761,
26.239,0.0530000000000008,1,1,7,1,48.0182269284191,-6.63852261352993,
26.25,0.0640000000000001,1,1,7,1,48.0174866029595,-6.52968072333586,
26.26,0.0740000000000016,1,1,7,1,48.0178181597604,-6.51192913427174,
26.271,0.0850000000000009,1,1,7,1,48.0178408691304,-6.50537119600138,
26.282,0.0960000000000001,1,1,7,1,48.0175728985652,-6.70210105865643,
26.292,0.106000000000002,1,1,7,1,48.0156516858693,-6.73902933518328,
26.303,0.117000000000001,1,1,7,1,48.0164828488087,-6.52133312661143,
26.314,0.128,1,1,7,1,48.0176092335571,-6.37216178028218,
26.324,0.138000000000002,1,1,7,1,48.0179317066101,-6.57934374543636,
26.335,0.149000000000001,1,1,7,1,48.0189400026348,-6.61643773107933,
26.345,0.158999999999999,1,1,7,1,48.0174638935896,-6.33225073966521,
26.346,0.16,1,1,7,1,48.0175274798253,-6.45872822254212,
26.356,0.170000000000002,1,1,7,1,48.0183268496468,-6.53375302486446,
26.367,0.181000000000001,1,1,7,1,48.0164964744306,-6.49321643233414,
26.378,0.192,1,1,7,1,48.0188264557852,-6.57751265970326,
26.388,0.202000000000002,1,1,7,1,48.015442759666,-6.52541371359583,
26.399,0.213000000000001,1,1,7,1,48.0159423658044,-6.62148357366512,
26.41,0.224,1,1,7,1,48.0168689080975,-6.55021622555076,
26.42,0.234000000000002,1,1,7,1,48.0162239619915,-6.57037888225439,
26.431,0.245000000000001,1,1,7,1,48.0170960017967,-6.69251478628901,
26.442,0.256,1,1,7,1,48.0173957654798,-6.47650052524576,
26.452,0.266000000000002,1,1,7,1,48.0157970258369,-6.40616943363746,
26.463,0.277000000000001,1,1,7,1,48.0169279524593,-6.55747842756462,
26.474,0.288,1,1,7,1,48.0157016464832,-6.64768632765125,
26.484,0.298000000000002,1,1,7,1,48.0154927202798,-6.66965521372056,
26.495,0.309000000000001,1,1,7,1,48.0142346211858,-6.64708148937742,
26.506,0.32,1,1,7,1,48.0150021978894,-6.52050458103084,
26.516,0.330000000000002,1,1,7,1,48.016060454528,-6.72939335008103,
26.527,0.341000000000001,1,1,7,1,48.0152974196985,-6.70394457257324,
26.538,0.352,1,1,7,1,48.0155790158856,-6.82885196157493,
26.548,0.362000000000002,1,1,7,1,48.0143209167916,-6.62222926468765,
26.559,0.373000000000001,1,1,7,1,48.0146206804746,-6.70215491411917,
26.57,0.384,1,1,7,1,48.014184660572,-6.7013595103618,
26.58,0.394000000000002,1,1,7,1,48.0146797248364,-6.65816328651779,
26.591,0.405000000000001,1,1,7,1,48.0139666506207,-6.61592403281937,
26.602,0.416,1,1,7,1,48.014806897308,-6.64475327629596,
26.612,0.426000000000002,1,1,7,1,48.0151974984708,-6.66214030530462,
26.623,0.437000000000001,1,1,7,1,48.0142119118159,-6.82289057612259,
26.634,0.448,1,1,7,1,48.0134443351124,-6.6764534302093,
26.644,0.458000000000002,1,1,7,1,48.0134125419945,-6.515247459322,
26.655,0.469000000000001,1,1,7,1,48.0154155084221,-6.58631181376912,
26.666,0.48,1,1,7,1,48.0152837940765,-6.66958064461831,
26.676,0.490000000000002,1,1,7,1,48.0144707986331,-6.76385670350563,
26.687,0.501000000000001,1,1,7,1,48.0149249860316,-6.71810855927341,
26.698,0.512,1,1,7,1,48.0131218620594,-6.66302270634795,
26.708,0.522000000000002,1,1,7,1,48.0144526311371,-6.75136223615035,
26.719,0.533000000000001,1,1,7,1,48.0127948471324,-6.80132353465986,
26.73,0.544,1,1,7,1,48.013235408909,-6.72678343150217,
26.74,0.554000000000002,1,1,7,1,48.0136487194417,-6.6248267550828,
26.751,0.565000000000001,1,1,7,1,48.0131809064212,-6.60606019768246,
26.762,0.576000000000001,1,1,7,1,48.0134897538522,-6.72044505781067,
26.772,0.586000000000002,1,1,7,1,48.0128720589902,-6.77923450948136,
26.783,0.597000000000001,1,1,7,1,48.013249034531,-6.63406089557846,
26.794,0.608000000000001,1,1,7,1,48.0131899901692,-6.67142415853512,
26.804,0.618000000000002,1,1,7,1,48.0146615573405,-6.72955077374134,
26.815,0.629000000000001,1,1,7,1,48.0124814578274,-6.77552262528032,
26.826,0.640000000000001,1,1,7,1,48.014189202446,-6.75788703259749,
26.836,0.650000000000002,1,1,7,1,48.0134216257424,-6.6571897454606,
26.847,0.661000000000001,1,1,7,1,48.011986393563,-6.61655787018852,
26.858,0.672000000000001,1,1,7,1,48.0133217045148,-6.78228355721793,
26.868,0.682000000000002,1,1,7,1,48.0137213894255,-6.75149894617114,
26.879,0.693000000000001,1,1,7,1,48.0121408172785,-6.71925609490252,
26.89,0.704000000000001,1,1,7,1,48.0127221771487,-6.70100737849005,
26.9,0.714000000000002,1,1,7,1,48.0122498222542,-6.83801981842415,
26.911,0.725000000000001,1,1,7,1,48.0133080788928,-6.85841032516244,
26.922,0.736000000000001,1,1,7,1,48.0121771522704,-6.7600205374675,
26.932,0.746000000000002,1,1,7,1,48.0110371419,-6.78742882527339,
26.943,0.757000000000001,1,1,7,1,48.0117729254857,-6.67610544106545,
26.954,0.768000000000001,1,1,7,1,48.0139076062589,-6.72984076469455,
26.964,0.778000000000002,1,1,7,1,48.0116185017702,-6.72317097277081,
26.975,0.789000000000001,1,1,7,1,48.0109281369244,-6.74110898459056,
26.986,0.800000000000001,1,1,7,1,48.0127812215105,-6.6749040499736,
26.996,0.810000000000002,1,1,7,1,48.0114095755668,-6.78623157690943,
27.007,0.821000000000002,1,1,7,1,48.010732836343,-6.85747821138428,
27.018,0.832000000000001,1,1,7,1,48.01041036329,-6.86282233037908,
27.028,0.842000000000002,1,1,7,1,48.0112369843554,-6.62408520678817,
27.039,0.853000000000002,1,1,7,1,48.0116911717539,-6.76229489508622,
27.05,0.864000000000001,1,1,7,1,48.0110825606399,-6.85430902453853,
27.06,0.874000000000002,1,1,7,1,48.0106601663592,-6.86814573573437,
27.071,0.885000000000002,1,1,7,1,48.0113141962131,-6.77855924483318,
27.082,0.896000000000001,1,1,7,1,48.0114095755668,-6.70488497180721,
27.092,0.906000000000002,1,1,7,1,48.0101469345989,-6.67444006444847,
27.105,0.919,1,1,7,1,48.0114595361807,-6.66836682534275,
27.115,0.929000000000002,1,1,7,1,48.0110825606399,-6.87124449620577,
27.126,0.940000000000001,1,1,7,1,48.010719210721,-6.77156217740511,
27.137,0.951000000000001,1,1,7,1,48.0109372206723,-6.77040635632019,
27.147,0.961000000000002,1,1,7,1,48.0112778612213,-6.77543977072226,
27.158,0.972000000000001,1,1,7,1,48.0105647870055,-6.77983934775519,
27.169,0.983000000000001,1,1,7,1,48.0098653384118,-6.81322973465293,
27.179,0.993000000000002,1,1,7,1,48.009797210302,-6.79472831183837,
27.19,1.004,1,1,7,1,48.0100651808671,-6.7542497174987,
27.201,1.015,1,1,7,1,48.0098607965378,-6.78709326431325,
27.211,1.025,1,1,7,1,48.0107101269731,-6.8456921505004,
27.222,1.036,1,1,7,1,48.0111325212537,-6.85901516343627,
27.233,1.047,1,1,7,1,48.0106510826113,-6.80858987940163,
27.243,1.057,1,1,7,1,48.0103422351802,-6.68032688079855,
27.254,1.068,1,1,7,1,48.0115004130466,-6.79578056472572,
27.265,1.079,1,1,7,1,48.011682088006,-6.91073712130454,
27.275,1.089,1,1,7,1,48.0114504524327,-6.76656190482625,
27.286,1.1,1,1,7,1,48.0113777824489,-6.66095962785228,
27.295,1.109,1,1,7,1,48.0112279006074,-7.07454058258699,
27.297,1.111,1,1,7,1,48.0109417625463,-6.96111683533226,
27.307,1.121,1,1,7,1,48.0089387961187,-6.89522260530801,
27.318,1.132,1,1,7,1,48.009474737249,-6.88694957768583,
27.321,1.135,1,1,7,1,48.0087071605455,-6.87933524380022,
27.323,1.137,1,1,7,1,48.0097381659402,-6.79641025936697,
27.333,1.147,1,1,7,1,48.0101560183468,-6.85986442265638,
27.344,1.158,1,1,7,1,48.0109599300423,-6.96866902829932,
27.355,1.169,1,1,7,1,48.0097336240662,-6.91724534684007,
27.365,1.179,1,1,7,1,48.0100515552452,-6.71505122608103,
27.376,1.19,1,1,7,1,48.0096654959564,-6.79928531253161,
27.387,1.201,1,1,7,1,48.0097336240662,-6.82250530242762,
27.397,1.211,1,1,7,1,48.0103467770542,-6.9226350358418,
27.408,1.222,1,1,7,1,48.0106919594771,-6.89198299208791,
27.416,1.23,1,1,8,1,48.009483820997,-6.91993811997698,
27.416,0,1,1,8,1,48.009483820997,-6.91993811997698,
27.421,0.00499999999999901,1,1,8,1,48.0095428653588,-6.89405435603938,
27.422,0.00600000000000023,1,1,8,1,48.0094429441311,-6.80555740257667,
27.424,0.00799999999999912,1,1,8,1,48.0089206286228,-6.64212678680549,
27.432,0.0160000000000018,1,1,8,1,48.0073718495937,-6.93999306575514,
27.443,0.027000000000001,1,1,8,1,47.9977794117363,-6.88559904838947,
27.454,0.0380000000000003,1,1,8,1,47.9836223905234,-6.95627812914162,
27.464,0.0480000000000018,1,1,8,1,47.9757513229065,-7.12690052055231,
27.475,0.0590000000000011,1,1,8,1,47.965227800882,-7.20724458550202,
27.486,0.0700000000000003,1,1,8,1,47.9524969281005,-7.24516711672558,
27.496,0.0800000000000018,1,1,8,1,47.944834786687,-7.14842613473601,
27.507,0.0910000000000011,1,1,8,1,47.9291698633109,-7.38096988011202,
27.518,0.102,1,1,8,1,47.9202087459374,-7.57645278166828,
27.528,0.112000000000002,1,1,8,1,47.9099441107301,-7.5089553159456,
27.539,0.123000000000001,1,1,8,1,47.8997112686407,-7.531603609391,
27.55,0.134,1,1,8,1,47.887080317087,-7.57176735641005,
27.56,0.144000000000002,1,1,8,1,47.8783962540266,-7.87810137119331,
27.571,0.155000000000001,1,1,8,1,47.865719883733,-7.89719106137008,
27.582,0.166,1,1,8,1,47.8537792970251,-7.9571404768536,
27.592,0.176000000000002,1,1,8,1,47.8444048691189,-7.95030083308584,
27.603,0.187000000000001,1,1,8,1,47.8323189424435,-7.98326866173747,
27.614,0.198,1,1,8,1,47.8225993321144,-8.3001044917547,
27.624,0.208000000000002,1,1,8,1,47.8134338304116,-8.12456053959531,
27.635,0.219000000000001,1,1,8,1,47.800439528939,-8.2121792347426,
27.646,0.23,1,1,8,1,47.7919961851999,-8.25412849748782,
27.657,0.241,1,1,8,1,47.7778800408529,-8.47217269520352,
27.667,0.251000000000001,1,1,8,1,47.7685828248045,-8.59260593807003,
27.678,0.262,1,1,8,1,47.7587950863657,-8.57562489639586,
27.689,0.273,1,1,8,1,47.7461050904501,-8.67113134547036,
27.699,0.283000000000001,1,1,8,1,47.7378752147884,-8.66042653656915,
27.71,0.294,1,1,8,1,47.726388815479,-8.66694719028838,
27.721,0.305,1,1,8,1,47.7143255981734,-8.97372033422936,
27.731,0.315000000000001,1,1,8,1,47.7037384899131,-8.82012869722767,
27.742,0.326000000000001,1,1,8,1,47.6949408800032,-8.85600472086718,
27.753,0.337,1,1,8,1,47.6830230026651,-8.99365514089833,
27.763,0.347000000000001,1,1,8,1,47.6703239230016,-9.15845699960538,
27.774,0.358000000000001,1,1,8,1,47.6621758010715,-9.22520877430553,
27.785,0.369,1,1,8,1,47.6496811057374,-9.25291119579253,
27.795,0.379000000000001,1,1,8,1,47.640365722193,-9.33949006623617,
27.806,0.390000000000001,1,1,8,1,47.6289883278593,-9.37181162933495,
27.817,0.401,1,1,8,1,47.6179833671924,-9.60353097185827,
27.827,0.411000000000001,1,1,8,1,47.6075052639077,-9.34711268557759,
27.838,0.422000000000001,1,1,8,1,47.5966365594604,-9.48113821869367,
27.849,0.433,1,1,8,1,47.5852818744965,-9.69649792872826,
27.859,0.443000000000001,1,1,8,1,47.57479014559,-9.69489055030192,
27.87,0.454000000000001,1,1,8,1,47.56160508541,-9.97603677943527,
27.881,0.465,1,1,8,1,47.5537022246752,-9.75087123245441,
27.891,0.475000000000001,1,1,8,1,47.5419160616827,-9.99554902785814,
27.902,0.486000000000001,1,1,8,1,47.5313289534225,-10.102435550482,
27.913,0.497,1,1,8,1,47.5212096581827,-10.3321539554282,
27.923,0.507000000000001,1,1,8,1,47.5079519280189,-10.2410222270192,
27.934,0.518000000000001,1,1,8,1,47.4984639532632,-10.343389033501,
27.945,0.529,1,1,8,1,47.4880948549542,-10.3830597958996,
27.955,0.539000000000001,1,1,8,1,47.4794244175158,-10.540077468877,
27.966,0.550000000000001,1,1,8,1,47.4669478896776,-10.5303710574004,
27.977,0.561,1,1,8,1,47.455815756539,-10.4988697544264,
27.987,0.571000000000002,1,1,8,1,47.4446472884086,-10.6283175732098,
27.998,0.582000000000001,1,1,8,1,47.4356271266734,-10.8519171690433,
28.009,0.593,1,1,8,1,47.4237864611931,-10.7980824199445,
28.019,0.603000000000002,1,1,8,1,47.4138079640469,-10.7583785157227,
28.03,0.614000000000001,1,1,8,1,47.4022261853838,-10.8334406025962,
28.041,0.625,1,1,8,1,47.3917526239732,-10.9099029315008,
28.051,0.635000000000002,1,1,8,1,47.3815879099935,-11.0148713711057,
28.062,0.646000000000001,1,1,8,1,47.3703740231233,-11.3090713358612,
28.073,0.657,1,1,8,1,47.3587195744764,-11.2747985479201,
28.083,0.667000000000002,1,1,8,1,47.3484640230171,-11.228959263674,
28.094,0.678000000000001,1,1,8,1,47.3387035358222,-11.3820247742321,
28.105,0.689,1,1,8,1,47.3282345162855,-11.5316725342701,
28.115,0.699000000000002,1,1,8,1,47.3174611911919,-11.4144126209773,
28.126,0.710000000000001,1,1,8,1,47.3046485646787,-11.6918096813585,
28.137,0.721,1,1,8,1,47.2933438403287,-11.6596662555595,
28.147,0.731000000000002,1,1,8,1,47.284455392939,-11.8505755855109,
28.158,0.742000000000001,1,1,8,1,47.2719606976048,-11.8555468589945,
28.169,0.753,1,1,8,1,47.2622592547717,-12.0388294268766,
28.179,0.763000000000002,1,1,8,1,47.2540611722279,-12.0730566448107,
28.19,0.774000000000001,1,1,8,1,47.2408624864259,-12.0388459977882,
28.201,0.785,1,1,8,1,47.230152747568,-12.1745327647933,
28.211,0.795000000000002,1,1,8,1,47.2202423785316,-12.2425522142318,
28.222,0.806000000000001,1,1,8,1,47.2076114269779,-12.3862551597291,
28.233,0.817,1,1,8,1,47.1983460040474,-12.2067383315108,
28.243,0.827000000000002,1,1,8,1,47.1880086988563,-12.4272267386893,
28.254,0.838000000000001,1,1,8,1,47.1785752265884,-12.589820523424,
28.265,0.849,1,1,8,1,47.1646316734528,-12.6817435128625,
28.275,0.859000000000002,1,1,8,1,47.1537629690054,-12.7071094358122,
28.286,0.870000000000001,1,1,8,1,47.146046325104,-12.7931787507238,
28.297,0.881,1,1,8,1,47.1335243785259,-12.8248333346302,
28.307,0.891000000000002,1,1,8,1,47.1230735264852,-12.9814905902801,
28.318,0.902000000000001,1,1,8,1,47.1133039555423,-12.9026089082801,
28.329,0.913,1,1,8,1,47.1001733978502,-12.9880071012714,
28.339,0.923000000000002,1,1,8,1,47.0917754728509,-13.1469884272748,
28.35,0.934000000000001,1,1,8,1,47.0790400581955,-13.2799202802245,
28.361,0.945,1,1,8,1,47.0691115216631,-13.2399015286821,
28.371,0.955000000000002,1,1,8,1,47.0586924627403,-13.3729659489247,
28.382,0.966000000000001,1,1,8,1,47.048445995029,-13.2538418080755,
28.393,0.977,1,1,8,1,47.0354698610523,-13.480258458883,
28.403,0.987000000000002,1,1,8,1,47.0252642702068,-13.5351288899575,
28.414,0.998000000000001,1,1,8,1,47.0153766105403,-13.6096399940199,
28.425,1.009,1,1,8,1,47.0051028915851,-13.5334635133405,
28.435,1.019,1,1,8,1,46.9934620685602,-13.7213693655623,
28.446,1.03,1,1,8,1,46.9854547447237,-13.9443972649453,
28.457,1.041,1,1,8,1,46.973418778662,-13.7454758992296,
28.467,1.051,1,1,8,1,46.9618960443607,-13.7315107634687,
28.478,1.062,1,1,8,1,46.952385360235,-14.1021730571289,
28.489,1.073,1,1,8,1,46.9417482913609,-14.2073776322242,
28.499,1.083,1,1,8,1,46.9309522568973,-13.9785830556004,
28.51,1.094,1,1,8,1,46.9206830798161,-13.8743975915692,
28.521,1.105,1,1,8,1,46.90815204949,-14.3459435951219,
28.531,1.115,1,1,8,1,46.8982325967056,-14.4891411278151,
28.542,1.126,1,1,8,1,46.8879043752625,-14.1662030595968,
28.553,1.137,1,1,8,1,46.8771128826729,-14.2989402043351,
28.564,1.148,1,1,8,1,46.8654084734122,-14.4902306652536,
28.574,1.158,1,1,8,1,46.853863029741,-14.6066578902379,
28.585,1.169,1,1,8,1,46.844761114274,-14.5829449157215,
28.596,1.18,1,1,8,1,46.8326661038505,-14.5382780234719,
28.606,1.19,1,1,8,1,46.8221970843138,-14.610282777153,
28.617,1.201,1,1,8,1,46.8120096609643,-14.5878209064633,
28.628,1.212,1,1,8,1,46.8001372023661,-14.6969983576175,
28.638,1.222,1,1,8,1,46.7896227640896,-14.7934079213748,
28.649,1.233,1,1,8,1,46.7808569472976,-14.8833009741408,
28.66,1.244,1,1,8,1,46.7681805770039,-14.7492547273852,
28.67,1.254,1,1,8,1,46.7589560309393,-14.9143092924943,
28.681,1.265,1,1,8,1,46.7509986677167,-14.9869644544562,
28.692,1.276,1,1,8,1,46.7367008484102,-14.9542741885741,
28.702,1.286,1,1,8,1,46.725473335918,-15.0676730794614,
28.713,1.297,1,1,8,1,46.716366878577,-15.1964290626849,
28.724,1.308,1,1,8,1,46.7033271583646,-15.1875801958842,
28.734,1.318,1,1,8,1,46.6952426226703,-15.2268325427646,
28.745,1.329,1,1,8,1,46.684037819548,-15.1644182041788,
28.756,1.34,1,1,8,1,46.6731872825966,-15.245810379288,
28.766,1.35,1,1,8,1,46.6610831884252,-15.5947316369135,
28.777,1.361,1,1,8,1,46.6500055577745,-15.5023488046779,
28.788,1.372,1,1,8,1,46.6404449130349,-15.5598498679707,
28.798,1.382,1,1,8,1,46.6306526327221,-15.5694568539777,
28.809,1.393,1,1,8,1,46.6177082918634,-15.6307775123971,
28.82,1.404,1,1,8,1,46.6092422387543,-15.5870344484699,
28.83,1.414,1,1,8,1,46.5982145687175,-15.9395391657315,
28.841,1.425,1,1,8,1,46.5863693613632,-15.8908413992323,
28.852,1.436,1,1,8,1,46.5753780263182,-15.8082685466708,
28.862,1.446,1,1,8,1,46.5633193508867,-15.9506375337834,
28.873,1.457,1,1,8,1,46.5542038097977,-16.0489486096482,
28.884,1.468,1,1,8,1,46.5434168590821,-16.0651052484697,
28.894,1.478,1,1,8,1,46.5330659282691,-16.023901676747,
28.905,1.489,1,1,8,1,46.523042012383,-15.9993808702895,
28.916,1.5,1,1,8,1,46.51081074574,-16.2341906878284,
28.926,1.51,1,1,8,1,46.5012864359923,-16.2804898148717,
28.937,1.521,1,1,8,1,46.4896501548414,-16.2930878504246,
28.948,1.532,1,1,8,1,46.4788359528818,-16.2762310905875,
28.958,1.542,1,1,8,1,46.4699111705003,-16.3715345459947,
28.969,1.553,1,1,8,1,46.4586019042763,-16.3965731934401,
28.98,1.564,1,1,8,1,46.4488368752074,-16.6614095028196,
28.99,1.574,1,1,8,1,46.4374231458818,-16.4620904352252,
29.001,1.585,1,1,8,1,46.4269405007232,-16.4418780657868,
29.012,1.596,1,1,8,1,46.4146910665842,-16.6194146700675,
29.022,1.606,1,1,8,1,46.4051213380967,-16.7108073903343,
29.033,1.617,1,1,8,1,46.3957105751987,-16.630488181752,
29.044,1.628,1,1,8,1,46.3826935643562,-16.7406433166913,
29.054,1.638,1,1,8,1,46.3731828802305,-16.8877971545318,
29.065,1.649,1,1,8,1,46.3640991322594,-16.8562627097346,
29.076,1.66,1,1,8,1,46.3497558942131,-16.9574612669478,
29.086,1.67,1,1,8,1,46.3424162258525,-16.7546415942754,
29.097,1.681,1,1,8,1,46.3301168310997,-16.8245252712702,
29.108,1.692,1,1,8,1,46.3203154670389,-17.0498523846392,
29.118,1.702,1,1,8,1,46.3093740926078,-17.2631821580014,
29.129,1.713,1,1,8,1,46.2991003736525,-17.0670571336202,
29.14,1.724,1,1,8,1,46.2878592355383,-16.9424604492112,
29.15,1.734,1,1,8,1,46.2767861467616,-17.1339746174364,
29.161,1.745,1,1,8,1,46.266317127225,-17.3633326050551,
29.172,1.756,1,1,8,1,46.2544446686268,-17.328247842445,
29.182,1.766,1,1,8,1,46.2461739160991,-17.3518613914918,
29.193,1.777,1,1,8,1,46.2339290238342,-17.2984077733601,
29.204,1.788,1,1,8,1,46.223927817318,-17.5547970605455,
29.214,1.798,1,1,8,1,46.2131590340983,-17.5721716613704,
29.225,1.809,1,1,8,1,46.2008550974715,-17.4058659924346,
29.236,1.82,1,1,8,1,46.1912626596141,-17.4598291660984,
29.246,1.83,1,1,8,1,46.179367491646,-17.6790457558106,
29.257,1.841,1,1,8,1,46.1697841375365,-17.6822853690307,
29.268,1.852,1,1,8,1,46.1590108124429,-17.5830587502994,
29.278,1.862,1,1,8,1,46.1475198712595,-17.6500715168574,
29.289,1.873,1,1,8,1,46.1373279060359,-17.7560590675264,
29.3,1.884,1,1,8,1,46.1260867679217,-17.8310672989371,
29.31,1.894,1,1,8,1,46.1164807044424,-17.8070146207326,
29.321,1.905,1,1,8,1,46.1042585215473,-17.822322000334,
29.332,1.916,1,1,8,1,46.0945616205882,-17.7922955084934,
29.342,1.926,1,1,8,1,46.0822349745915,-18.0616805331103,
29.353,1.937,1,1,8,1,46.0725108223884,-18.049658336736,
29.364,1.948,1,1,8,1,46.0617420391688,-18.1361502098937,
29.374,1.958,1,1,8,1,46.0539209321657,-18.0310947730029,
29.385,1.969,1,1,8,1,46.0413853599656,-18.0356724873356,
29.396,1.98,1,1,8,1,46.0287634921598,-18.2682825163581,
29.406,1.99,1,1,8,1,46.018975753721,-18.2118295632247,
29.417,2.001,1,1,8,1,46.0097966263963,-18.1740106001987,
29.428,2.012,1,1,8,1,45.9976062366191,-18.3149462034569,
