"Total Time (s)","Cycle Elapsed Time (s)","Total Cycles","Elapsed Cycles","Step","Loop 1","Total Cycle Count(8800 (0,4) Waveform)","Position(8800 (0,4):Position) (mm)","Load(8800 (0,4):Load) (N)",
0,0,1,1,1,1,1,53.3775610194855,-15.4659963673295,
0.01,0.01,1,1,1,1,1,53.3770523295991,-15.4557638294093,
0.02,0.02,1,1,1,1,1,53.3774383888879,-15.2840311869206,
0.031,0.031,1,1,1,1,1,53.3772975907944,-15.3624613115791,
0.041,0.041,1,1,1,1,1,53.3787010298559,-15.4843403664838,
0.056,0.056,1,1,1,1,1,53.3782241330874,-15.3531981719881,
0.066,0.066,1,1,1,1,1,53.3788917885633,-15.529065256924,
0.077,0.077,1,1,1,1,1,53.3781378374817,-15.50422131769,
0.087,0.087,1,1,1,1,1,53.3789144979332,-15.3356122920401,
0.098,0.098,1,1,1,1,1,53.3784239755428,-15.4270298686744,
0.109,0.109,1,1,1,1,1,53.378355847433,-15.4611493756831,
0.119,0.119,1,1,1,1,1,53.3782195912134,-15.5260907782896,
0.13,0.13,1,1,1,1,1,53.37866015299,-15.3875455290315,
0.14,0.14,1,1,1,1,1,53.3790144191609,-15.3415156793018,
0.151,0.151,1,1,1,1,1,53.378673778612,-15.4005909791978,
0.161,0.161,1,1,1,1,1,53.3779425369003,-15.5514649866952,
0.171,0.171,1,1,1,1,1,53.3791643010024,-15.4370428420158,
0.182,0.182,1,1,1,1,1,53.3788827048153,-15.3686795461614,
0.192,0.192,1,1,1,1,1,53.3780651674979,-15.52044009743,
0.202,0.202,1,1,1,1,1,53.3784557686607,-15.4606522483347,
0.213,0.213,1,1,1,1,1,53.377411137644,-15.4010218228997,
0.223,0.223,1,1,1,1,1,53.3773248420383,-15.3273475498738,
0.233,0.233,1,1,1,1,1,53.3772839651724,-15.5089813120505,
0.244,0.244,1,1,1,1,1,53.3769342408755,-15.493379798768,
0.254,0.254,1,1,1,1,1,53.377084122717,-15.3034232962343,
0.264,0.264,1,1,1,1,1,53.3772067533147,-15.4224977243486,
0.274,0.274,1,1,1,1,1,53.3785829411323,-15.4915942830418,
0.284,0.284,1,1,1,1,1,53.3776745663352,-15.2833393513608,
0.295,0.295,1,1,1,1,1,53.3785693155103,-15.4267357349933,
0.305,0.305,1,1,1,1,1,53.379623030275,-15.4555028375514,
0.315,0.315,1,1,1,1,1,53.3791007147666,-15.3493371495826,
0.325,0.325,1,1,1,1,1,53.3794640646855,-15.4161759215687,
0.335,0.335,1,1,1,1,1,53.3789144979332,-15.5567428220435,
0.345,0.345,1,1,1,1,1,53.3792551384821,-15.3319791196693,
0.356,0.356,1,1,1,1,1,53.3794549809375,-15.3628051579951,
0.366,0.366,1,1,1,1,1,53.3772567139285,-15.4644345589101,
0.376,0.376,1,1,1,1,1,53.3781650887256,-15.4573380660124,
0.386,0.386,1,1,1,1,1,53.3784194336688,-15.47366041395,
0.396,0.396,1,1,1,1,1,53.3782740937013,-15.6091317591042,
0.406,0.406,1,1,1,1,1,53.3779062019084,-15.5489006381233,
0.416,0.416,1,1,1,1,1,53.3782059655915,-15.3440054587715,
0.427,0.427,1,1,1,1,1,53.3782014237175,-15.4291343744491,
0.437,0.437,1,1,1,1,1,53.3778971181605,-15.5700989768026,
0.447,0.447,1,1,1,1,1,53.3781968818435,-15.3810455889517,
0.457,0.457,1,1,1,1,1,53.3778607831686,-15.4812664623798,
0.467,0.467,1,1,1,1,1,53.3779561625223,-15.540287906813,
0.477,0.477,1,1,1,1,1,53.3771885858187,-15.3674864405254,
0.488,0.488,1,1,1,1,1,53.3772067533147,-15.450995549593,
0.498,0.498,1,1,1,1,1,53.3775928126034,-15.4971455384318,
0.508,0.508,1,1,1,1,1,53.3772249208106,-15.4240388191285,
0.518,0.518,1,1,1,1,1,53.3791688428764,-15.5335104039638,
0.528,0.528,1,1,1,1,1,53.3776018963514,-15.4293622244838,
0.538,0.538,1,1,1,1,1,53.3789099560592,-15.517067916917,
0.548,0.548,1,1,1,1,1,53.3790916310186,-15.3653943629344,
0.558,0.558,1,1,1,1,1,53.378973542295,-15.3673455877767,
0.568,0.568,1,1,1,1,1,53.3791915522463,-15.4761999061545,
0.579,0.579,1,1,1,1,1,53.379291473474,-15.3069073304006,
0.589,0.589,1,1,1,1,1,53.3795639859131,-15.4233552690245,
0.599,0.599,1,1,1,1,1,53.3780924187418,-15.5934266776241,
0.609,0.609,1,1,1,1,1,53.3778017388068,-15.4811214669032,
0.619,0.619,1,1,1,1,1,53.3790007935389,-15.338561914307,
0.629,0.629,1,1,1,1,1,53.3773793445261,-15.5815701903659,
0.639,0.639,1,1,1,1,1,53.3774928913757,-15.4370428420158,
0.649,0.649,1,1,1,1,1,53.3779198275304,-15.3965849613157,
0.659,0.659,1,1,1,1,1,53.3777699456889,-15.678244888709,
0.669,0.669,1,1,1,1,1,53.377715443201,-15.4475860845288,
0.679,0.679,1,1,1,1,1,53.3766026840746,-15.3936601954162,
0.689,0.689,1,1,1,1,1,53.378024290632,-15.5613661063832,
0.699,0.699,1,1,1,1,1,53.3782513843313,-15.3416523893226,
0.71,0.71,1,1,1,1,1,53.3787282810998,-15.3104659336693,
0.72,0.72,1,1,1,1,1,53.3787328229738,-15.4487046210626,
0.73,0.73,1,1,1,1,1,53.3781696305996,-15.5085173265254,
0.74,0.74,1,1,1,1,1,53.3787055717299,-15.3859215796935,
0.75,0.75,1,1,1,1,1,53.3787964092096,-15.3683356997455,
0.76,0.76,1,1,1,1,1,53.3774928913757,-15.3949361556103,
0.77,0.77,1,1,1,1,1,53.3780061231361,-15.2608070542967,
0.78,0.78,1,1,1,1,1,53.3786465273681,-15.3711817538148,
0.79,0.79,1,1,1,1,1,53.3787146554778,-15.3017496341615,
0.8,0.8,1,1,1,1,1,53.3791506753805,-15.3093349689518,
0.81,0.81,1,1,1,1,1,53.3786465273681,-15.4189556919916,
0.82,0.82,1,1,1,1,1,53.3791960941203,-15.4687637095687,
0.83,0.83,1,1,1,1,1,53.3782377587094,-15.2946034285289,
0.841,0.841,1,1,1,1,1,53.377088664591,-15.4330948223243,
0.851,0.851,1,1,1,1,1,53.3786919461079,-15.4870911378113,
0.861,0.861,1,1,1,1,1,53.3783058868192,-15.4642315652429,
0.871,0.871,1,1,1,1,1,53.3771431670789,-15.3870359734994,
0.881,0.881,1,1,1,1,1,53.3785420642664,-15.4778984245947,
0.891,0.891,1,1,1,1,1,53.3779289112783,-15.3867915525531,
0.901,0.901,1,1,1,1,1,53.3769524083715,-15.4198836630418,
0.911,0.911,1,1,1,1,1,53.3765845165786,-15.5587437596207,
0.921,0.921,1,1,1,1,1,53.3770023689853,-15.3633022853434,
0.931,0.931,1,1,1,1,1,53.3774610982578,-15.4782754128339,
0.941,0.941,1,1,1,1,1,53.3769251571276,-15.5700575495236,
0.951,0.951,1,1,1,1,1,53.3781423793557,-15.4663153573781,
0.962,0.962,1,1,1,1,1,53.3772294626846,-15.3207606125081,
0.972,0.972,1,1,1,1,1,53.3787010298559,-15.4381986631008,
0.982,0.982,1,1,1,1,1,53.3792505966081,-15.3785640949379,
0.992,0.992,1,1,1,1,1,53.3798864589661,-15.4453531541892,
1.002,1.002,1,1,1,1,1,53.3788963304373,-15.4526112134751,
1.012,1.012,1,1,1,1,1,53.378991709791,-15.3837632184561,
1.022,1.022,1,1,1,1,1,53.378355847433,-15.2974204835029,
1.032,1.032,1,1,1,1,1,53.3784966455265,-15.471696760924,
1.042,1.042,1,1,1,1,1,53.3779607043963,-15.5096482912429,
1.052,1.052,1,1,1,1,1,53.3774656401318,-15.4758684879222,
1.062,1.062,1,1,1,1,1,53.377106832087,-15.4968762611181,
1.072,1.072,1,1,1,1,1,53.3768797383877,-15.4780019927923,
1.082,1.082,1,1,1,1,1,53.3776382313433,-15.4138477084873,
1.092,1.092,1,1,1,1,1,53.3770250783552,-15.5962810171492,
1.102,1.102,1,1,1,1,1,53.3774383888879,-15.6461760320123,
1.112,1.112,1,1,1,1,1,53.3769796596154,-15.3068741885774,
1.122,1.122,1,1,1,1,1,53.3773021326683,-15.519545268203,
1.132,1.132,1,1,1,1,1,53.3772430883065,-15.4993867542273,
1.142,1.142,1,1,1,1,1,53.3773657189041,-15.416378915236,
1.152,1.152,1,1,1,1,1,53.3778607831686,-15.5419201416068,
1.163,1.163,1,1,1,1,1,53.3777018175791,-15.5405986114058,
1.173,1.173,1,1,1,1,1,53.3779924975142,-15.4566876577316,
1.183,1.183,1,1,1,1,1,53.3784285174168,-15.4528680626051,
1.193,1.193,1,1,1,1,1,53.3787419067218,-15.5756543749205,
1.203,1.203,1,1,1,1,1,53.3789008723113,-15.3877485226987,
1.213,1.213,1,1,1,1,1,53.3791279660105,-15.5011639844976,
1.223,1.223,1,1,1,1,1,53.3800090895637,-15.6016541352394,
1.233,1.233,1,1,1,1,1,53.3788418279494,-15.4698781033746,
1.243,1.243,1,1,1,1,1,53.3804814444582,-15.5377815564318,
1.253,1.253,1,1,1,1,1,53.3788372860755,-15.6028265272359,
1.263,1.263,1,1,1,1,1,53.3785874830063,-15.4524620752706,
1.273,1.273,1,1,1,1,1,53.3788463698234,-15.3899897384942,
1.284,1.284,1,1,1,1,1,53.3776246057213,-15.4968472620228,
1.294,1.294,1,1,1,1,1,53.3779198275304,-15.5762219286432,
1.304,1.304,1,1,1,1,1,53.3779425369003,-15.4887772280678,
1.314,1.314,1,1,1,1,1,53.3772930489204,-15.5258090727922,
1.324,1.324,1,1,1,1,1,53.3785556898884,-15.5230914432879,
1.334,1.334,1,1,1,1,1,53.3775928126034,-15.4421963955271,
1.344,1.344,1,1,1,1,1,53.3780878768678,-15.5122333534543,
1.354,1.354,1,1,1,1,1,53.3768751965137,-15.5180414579742,
1.364,1.364,1,1,1,1,1,53.3781605468516,-15.3408114155583,
1.374,1.374,1,1,1,1,1,53.3765754328307,-15.4845930728858,
1.384,1.384,1,1,1,1,1,53.3767253146722,-15.452785208047,
1.394,1.394,1,1,1,1,1,53.3772839651724,-15.2734755162239,
1.404,1.404,1,1,1,1,1,53.378024290632,-15.4656939481926,
1.415,1.415,1,1,1,1,1,53.3771386252049,-15.4878906842966,
1.425,1.425,1,1,1,1,1,53.3772748814244,-15.3276748253781,
1.435,1.435,1,1,1,1,1,53.377738152571,-15.3790943641095,
1.445,1.445,1,1,1,1,1,53.3785602317623,-15.4905337446987,
1.455,1.455,1,1,1,1,1,53.3779697881442,-15.4037104533088,
1.465,1.465,1,1,1,1,1,53.3788009510836,-15.4452868705427,
1.475,1.475,1,1,1,1,1,53.3785738573843,-15.4833833963382,
1.485,1.485,1,1,1,1,1,53.3788963304373,-15.3553275341303,
1.495,1.495,1,1,1,1,1,53.3792188034902,-15.3638822672498,
1.505,1.505,1,1,1,1,1,53.3785148130225,-15.5952784769967,
1.515,1.515,1,1,1,1,1,53.3781332956077,-15.4231688462689,
1.525,1.525,1,1,1,1,1,53.37803337438,-15.3375220896034,
1.535,1.535,1,1,1,1,1,53.377424763266,-15.5552555827264,
1.546,1.546,1,1,1,1,1,53.3781923399695,-15.5565356856484,
1.556,1.556,1,1,1,1,1,53.3782695518273,-15.334253477288,
1.566,1.566,1,1,1,1,1,53.3775610194855,-15.4444583249621,
1.576,1.576,1,1,1,1,1,53.378024290632,-15.4662822155548,
1.586,1.586,1,1,1,1,1,53.3775791869815,-15.4211099105011,
1.596,1.596,1,1,1,1,1,53.377733610697,-15.5086788929136,
1.606,1.606,1,1,1,1,1,53.3770477877252,-15.3452358489587,
1.616,1.616,1,1,1,1,1,53.3777563200669,-15.3112323383313,
1.626,1.626,1,1,1,1,1,53.3776018963514,-15.4741948258495,
1.636,1.636,1,1,1,1,1,53.3780787931199,-15.5170140614543,
1.646,1.646,1,1,1,1,1,53.3768842802617,-15.2899345741823,
1.656,1.656,1,1,1,1,1,53.3771567927008,-15.6133034861024,
1.667,1.667,1,1,1,1,1,53.3779743300182,-15.6218623619499,
1.677,1.677,1,1,1,1,1,53.3785375223924,-15.4322248494647,
1.687,1.687,1,1,1,1,1,53.3786056505022,-15.3481978994093,
1.697,1.697,1,1,1,1,1,53.3786919461079,-15.5558769919118,
1.707,1.707,1,1,1,1,1,53.3784421430387,-15.2807998591563,
1.717,1.717,1,1,1,1,1,53.3782468424573,-15.3926949398148,
1.727,1.727,1,1,1,1,1,53.3788191185795,-15.3965683904041,
1.737,1.737,1,1,1,1,1,53.3791370497585,-15.3279151035965,
1.747,1.747,1,1,1,1,1,53.3793141828439,-15.465892799132,
1.755,1.755,1,1,1,1,1,53.3781196699857,-15.1994615395099,
1.757,1.757,1,1,1,1,1,53.378664694864,-15.4636142987853,
1.767,1.767,1,1,1,1,1,53.3791915522463,-15.4114490690315,
1.777,1.777,1,1,1,1,1,53.3785102711485,-15.4667089165288,
1.787,1.787,1,1,1,1,1,53.3785011874005,-15.5569665293503,
1.798,1.798,1,1,1,1,1,53.3785466061404,-15.4502332876588,
1.808,1.808,1,1,1,1,1,53.3795140252993,-15.365328079288,
1.818,1.818,1,1,1,1,1,53.378973542295,-15.440961862612,
1.828,1.828,1,1,1,1,1,53.37868286236,-15.4691696969032,
1.838,1.838,1,1,1,1,1,53.3774565563839,-15.3718528757351,
1.848,1.848,1,1,1,1,1,53.3776109800994,-15.4888476544422,
1.858,1.858,1,1,1,1,1,53.3784739361566,-15.4487170492463,
1.868,1.868,1,1,1,1,1,53.3787600742177,-15.3444073033781,
1.878,1.878,1,1,1,1,1,53.377733610697,-15.47314671569,
1.888,1.888,1,1,1,1,1,53.3775791869815,-15.5105306922862,
1.898,1.898,1,1,1,1,1,53.3783830986769,-15.3045542609518,
1.908,1.908,1,1,1,1,1,53.3773748026521,-15.4712037763035,
1.918,1.918,1,1,1,1,1,53.3767434821681,-15.4497485884942,
1.929,1.929,1,1,1,1,1,53.3774520145099,-15.425128356567,
1.939,1.939,1,1,1,1,1,53.3770477877252,-15.4064405109968,
1.949,1.949,1,1,1,1,1,53.3778289900507,-15.4352656117455,
1.959,1.959,1,1,1,1,1,53.3775655613595,-15.4066145055687,
1.969,1.969,1,1,1,1,1,53.3782740937013,-15.4267647340886,
1.979,1.979,1,1,1,1,1,53.3781242118597,-15.441773837281,
1.989,1.989,1,1,1,1,1,53.3781378374817,-15.358368296411,
1.999,1.999,1,1,1,1,1,53.3778199063027,-15.4817801606397,
2.01,2.01,1,1,1,1,1,53.3770795808431,-15.4347477707576,
2.021,2.021,1,1,1,1,1,53.3779561625223,-15.6030585199985,
2.031,2.031,1,1,1,1,1,53.3772975907944,-15.2932570419604,
2.042,2.042,1,1,1,1,1,53.3784557686607,-15.3792227886744,
2.053,2.053,1,1,1,1,1,53.3779379950263,-15.3406912764492,
2.063,2.063,1,1,1,1,1,53.3783830986769,-15.600987156047,
2.074,2.074,1,1,1,1,1,53.3792460547342,-15.481643450619,
2.084,2.084,1,1,1,1,1,53.3786919461079,-15.3302474594058,
2.095,2.095,1,1,1,1,1,53.3785148130225,-15.4005371237351,
2.106,2.106,1,1,1,1,1,53.3785829411323,-15.4920624112949,
2.116,2.116,1,1,1,1,1,53.3784058080468,-15.576317211385,
2.127,2.127,1,1,1,1,1,53.3779788718922,-15.5520325404179,
2.138,2.138,1,1,1,1,1,53.3786011086282,-15.3553233914024,
2.148,2.148,1,1,1,1,1,53.3778653250425,-15.5502097401406,
2.159,2.159,1,1,1,1,1,53.3773475514082,-15.5960655952983,
2.17,2.17,1,1,1,1,1,53.3776518569652,-15.5700534067957,
2.18,2.18,1,1,1,1,1,53.3781650887256,-15.339846159957,
2.191,2.191,1,1,1,1,1,53.3771658764488,-15.5436766582376,
2.201,2.201,1,1,1,1,1,53.3779561625223,-15.6163815329343,
2.212,2.212,1,1,1,1,1,53.3772249208106,-15.6125329387125,
2.223,2.223,1,1,1,1,1,53.378028832506,-15.3773461329344,
2.233,2.233,1,1,1,1,1,53.3783331380631,-15.4162090633919,
2.244,2.244,1,1,1,1,1,53.3779970393881,-15.4440979076346,
2.255,2.255,1,1,1,1,1,53.3785693155103,-15.5836374115895,
2.265,2.265,1,1,1,1,1,53.3778199063027,-15.4106205234509,
2.276,2.276,1,1,1,1,1,53.3783240543151,-15.326912563444,
2.287,2.287,1,1,1,1,1,53.3782831774492,-15.4663816410245,
2.297,2.297,1,1,1,1,1,53.378664694864,-15.5187125798945,
2.308,2.308,1,1,1,1,1,53.3782468424573,-15.4972615348131,
2.318,2.318,1,1,1,1,1,53.378355847433,-15.4083130240089,
2.329,2.329,1,1,1,1,1,53.37866015299,-15.4484726283001,
2.34,2.34,1,1,1,1,1,53.3781060443638,-15.5475791079222,
2.35,2.35,1,1,1,1,1,53.378346763685,-15.4757110642619,
2.361,2.361,1,1,1,1,1,53.3782831774492,-15.5298565179534,
2.372,2.372,1,1,1,1,1,53.3784148917948,-15.3313038550211,
2.382,2.382,1,1,1,1,1,53.378969000421,-15.5015575436484,
2.392,2.392,1,1,1,1,1,53.3809220062348,-15.4784866919569,
2.393,2.393,1,1,1,1,1,53.3804269419704,-15.5142550046709,
2.404,2.404,1,1,1,1,1,53.3785874830063,-15.5526788059707,
2.414,2.414,1,1,1,1,1,53.3778244481767,-15.323411958366,
2.425,2.425,1,1,1,1,1,53.3778562412946,-15.3943893155271,
2.436,2.436,1,1,1,1,1,53.3782559262053,-15.5083971874162,
2.446,2.446,1,1,1,1,1,53.3778562412946,-15.5326735729274,
2.457,2.457,1,1,1,1,1,53.3774429307619,-15.3989380307646,
2.467,2.467,1,1,1,1,1,53.3767616496641,-15.381290009898,
2.478,2.478,1,1,1,1,1,53.3784285174168,-15.5724644744352,
2.489,2.489,1,1,1,1,1,53.3778335319247,-15.4612695147923,
2.499,2.499,1,1,1,1,1,53.3778199063027,-15.3571379062238,
2.51,2.51,1,1,1,1,1,53.3778471575466,-15.4188811228893,
2.521,2.521,1,1,1,1,1,53.3774338470139,-15.4451087332429,
2.531,2.531,1,1,1,1,1,53.3784058080468,-15.6108095639049,
2.542,2.542,1,1,1,1,1,53.3775337682416,-15.5093293011943,
2.553,2.553,1,1,1,1,1,53.3779652462702,-15.3634514235479,
2.563,2.563,1,1,1,1,1,53.377724526949,-15.3037008590038,
2.574,2.574,1,1,1,1,1,53.3776654825872,-15.5258836418945,
2.584,2.584,1,1,1,1,1,53.3783013449452,-15.4908444492914,
2.595,2.595,1,1,1,1,1,53.3782650099533,-15.3646611000956,
2.606,2.606,1,1,1,1,1,53.3784466849127,-15.3844591967438,
2.616,2.616,1,1,1,1,1,53.3784239755428,-15.5027423638286,
2.627,2.627,1,1,1,1,1,53.3784739361566,-15.6242361450383,
2.638,2.638,1,1,1,1,1,53.3792278872382,-15.3673041604977,
2.648,2.648,1,1,1,1,1,53.378346763685,-15.379583206002,
2.659,2.659,1,1,1,1,1,53.3792369709862,-15.4426562383243,
2.67,2.67,1,1,1,1,1,53.3786374436201,-15.5669090763174,
2.68,2.68,1,1,1,1,1,53.3787555323437,-15.5442773537836,
2.691,2.691,1,1,1,1,1,53.3776654825872,-15.508616751995,
2.701,2.701,1,1,1,1,1,53.3762892947696,-15.2992432837802,
2.712,2.712,1,1,1,1,1,53.3780969606158,-15.4734657057385,
2.723,2.723,1,1,1,1,1,53.3777699456889,-15.6503891862896,
2.733,2.733,1,1,1,1,1,53.3782014237175,-15.4069666374405,
2.744,2.744,1,1,1,1,1,53.3768751965137,-15.2979797517698,
2.755,2.755,1,1,1,1,1,53.3765300140908,-15.583658125229,
2.765,2.765,1,1,1,1,1,53.3775791869815,-15.6122429477593,
2.776,2.776,1,1,1,1,1,53.3768706546397,-15.4942787707229,
2.787,2.787,1,1,1,1,1,53.3779561625223,-15.4761833352429,
2.797,2.797,1,1,1,1,1,53.3776155219733,-15.484373508307,
2.808,2.808,1,1,1,1,1,53.3784921036526,-15.4761087661406,
2.819,2.819,1,1,1,1,1,53.377106832087,-15.5729698872394,
2.829,2.829,1,1,1,1,1,53.3772839651724,-15.4303481937247,
2.84,2.84,1,1,1,1,1,53.3778653250425,-15.3734892532568,
2.85,2.85,1,1,1,1,1,53.378369473055,-15.4643185625288,
2.861,2.861,1,1,1,1,1,53.3768706546397,-15.5683093183486,
2.872,2.872,1,1,1,1,1,53.3774474726359,-15.5317373164214,
2.882,2.882,1,1,1,1,1,53.3781923399695,-15.2434987371182,
2.893,2.893,1,1,1,1,1,53.3781469212297,-15.43490105169,
2.904,2.904,1,1,1,1,1,53.3789508329251,-15.4928412441406,
2.914,2.914,1,1,1,1,1,53.3784103499208,-15.5154191112117,
2.925,2.925,1,1,1,1,1,53.3766253934445,-15.3277493944804,
2.936,2.936,1,1,1,1,1,53.3775337682416,-15.4253934911528,
2.946,2.946,1,1,1,1,1,53.3775701032335,-15.4136985702828,
2.957,2.957,1,1,1,1,1,53.3787191973518,-15.4779108527784,
2.967,2.967,1,1,1,1,1,53.3785466061404,-15.4142081258148,
2.978,2.978,1,1,1,1,1,53.3789008723113,-15.352949608314,
2.989,2.989,1,1,1,1,1,53.3781514631036,-15.4294699354093,
2.999,2.999,1,1,1,1,1,53.3782831774492,-15.5228718787091,
3.01,3.01,1,1,1,1,1,53.3782377587094,-15.5458723040262,
3.021,3.021,1,1,1,1,1,53.3797229515026,-15.5290859705635,
3.031,3.031,1,1,1,1,1,53.3780606256239,-15.4795638012117,
3.042,3.042,1,1,1,1,1,53.3780015812621,-15.4939680661302,
3.053,3.053,1,1,1,1,1,53.3786056505022,-15.5323131555999,
3.063,3.063,1,1,1,1,1,53.3784466849127,-15.5141762928408,
3.074,3.074,1,1,1,1,1,53.3781105862378,-15.326100588775,
3.084,3.084,1,1,1,1,1,53.3773520932822,-15.4669284811077,
3.095,3.095,1,1,1,1,1,53.3773884282741,-15.5272755984699,
3.106,3.106,1,1,1,1,1,53.3777063594531,-15.5876765712948,
3.116,3.116,1,1,1,1,1,53.3771795020707,-15.4289645226051,
3.127,3.127,1,1,1,1,1,53.3783830986769,-15.4256627684665,
3.138,3.138,1,1,1,1,1,53.3778062806807,-15.4438949139673,
3.148,3.148,1,1,1,1,1,53.3771522508268,-15.458721737132,
3.159,3.159,1,1,1,1,1,53.379282389726,-15.2934351792603,
3.17,3.17,1,1,1,1,1,53.377729068823,-15.3449500007334,
3.18,3.18,1,1,1,1,1,53.3772975907944,-15.4853056220852,
3.191,3.191,1,1,1,1,1,53.3782468424573,-15.4975308121267,
3.202,3.202,1,1,1,1,1,53.3786919461079,-15.3333462198772,
3.212,3.212,1,1,1,1,1,53.3781287537337,-15.3044921200332,
3.223,3.223,1,1,1,1,1,53.377415679518,-15.4156622233087,
3.233,3.233,1,1,1,1,1,53.3780061231361,-15.6129927815097,
3.244,3.244,1,1,1,1,1,53.377710901327,-15.4891086463001,
3.255,3.255,1,1,1,1,1,53.3778017388068,-15.3128811440367,
3.265,3.265,1,1,1,1,1,53.3786283598721,-15.37113204108,
3.276,3.276,1,1,1,1,1,53.3794095621976,-15.471311487229,
3.287,3.287,1,1,1,1,1,53.3779470787743,-15.5200879655583,
3.297,3.297,1,1,1,1,1,53.3784739361566,-15.4523833634405,
3.308,3.308,1,1,1,1,1,53.3787964092096,-15.3748273543694,
3.319,3.319,1,1,1,1,1,53.3787736998397,-15.3333835044284,
3.329,3.329,1,1,1,1,1,53.3780742512459,-15.5423302716692,
3.34,3.34,1,1,1,1,1,53.3777744875628,-15.3264692915583,
3.35,3.35,1,1,1,1,1,53.3782195912134,-15.3743509406606,
3.361,3.361,1,1,1,1,1,53.3780969606158,-15.4580630433954,
3.372,3.372,1,1,1,1,1,53.3776246057213,-15.5395463585184,
3.382,3.382,1,1,1,1,1,53.3780787931199,-15.4070453492706,
3.393,3.393,1,1,1,1,1,53.3776881919571,-15.4577481960748,
3.404,3.404,1,1,1,1,1,53.3776881919571,-15.3322691106225,
3.414,3.414,1,1,1,1,1,53.3778062806807,-15.4903183228477,
3.425,3.425,1,1,1,1,1,53.3772794232984,-15.5167074995895,
3.436,3.436,1,1,1,1,1,53.3771477089528,-15.4378755303243,
3.446,3.446,1,1,1,1,1,53.3774656401318,-15.3578007426883,
3.457,3.457,1,1,1,1,1,53.3775065169977,-15.4624833340678,
3.467,3.467,1,1,1,1,1,53.377738152571,-15.5900089271042,
