"Total Time (s)","Cycle Elapsed Time (s)","Total Cycles","Elapsed Cycles","Step","Loop 1","Total Cycle Count(8800 (0,4) Waveform)","Position(8800 (0,4):Position) (mm)","Load(8800 (0,4):Load) (N)",
167.508,0,1,1,3,8,1,39.1257100196479,-33.8504244031746,
167.519,0.0109999999999957,1,1,3,8,1,39.1264730544775,-33.8740213813098,
167.53,0.0219999999999914,1,1,3,8,1,39.133839974082,-33.7314825423531,
167.537,0.0289999999999964,1,1,3,8,1,39.1397307846413,-33.9460468486304,
167.541,0.032999999999987,1,1,3,8,1,39.1454262946191,-33.6411379322457,
167.551,0.0430000000000064,1,1,3,8,1,39.1536788796508,-33.5838232917085,
167.562,0.054000000000002,1,1,3,8,1,39.1656194663588,-33.6895788496148,
167.573,0.0649999999999977,1,1,3,8,1,39.1776781417904,-33.6794250235247,
167.584,0.0759999999999934,1,1,3,8,1,39.1876748064325,-33.5883222942111,
167.595,0.0869999999999891,1,1,3,8,1,39.2028355817962,-33.4268553314659,
167.606,0.0979999999999848,1,1,3,8,1,39.2106112700594,-33.3095291345266,
167.616,0.108000000000004,1,1,3,8,1,39.2190546137985,-33.4616749594901,
167.627,0.119,1,1,3,8,1,39.2325757726535,-33.2929167956358,
167.638,0.129999999999995,1,1,3,8,1,39.2439259157433,-33.3422732558715,
167.649,0.140999999999991,1,1,3,8,1,39.2547037827109,-33.2349393186341,
167.66,0.151999999999987,1,1,3,8,1,39.2655043590485,-33.2504165500795,
167.67,0.162000000000006,1,1,3,8,1,39.2742520083447,-33.0874374916497,
167.681,0.173000000000002,1,1,3,8,1,39.2875460735003,-33.1747910522112,
167.692,0.183999999999997,1,1,3,8,1,39.297374688805,-33.109195098596,
167.703,0.194999999999993,1,1,3,8,1,39.3084069007158,-33.0174046764504,
167.714,0.205999999999989,1,1,3,8,1,39.3213239903307,-33.0028471305995,
167.725,0.216999999999985,1,1,3,8,1,39.3324652072172,-33.0141982050535,
167.735,0.227000000000004,1,1,3,8,1,39.3398457524437,-33.1453735413724,
167.746,0.238,1,1,3,8,1,39.3523722408958,-33.0010864712407,
167.757,0.248999999999995,1,1,3,8,1,39.3646080494128,-33.0291493100553,
167.768,0.259999999999991,1,1,3,8,1,39.3747773052664,-32.9573848345925,
167.779,0.270999999999987,1,1,3,8,1,39.3839337232212,-32.9573309791298,
167.789,0.281000000000006,1,1,3,8,1,39.3953292850509,-33.1407088297537,
167.8,0.292000000000002,1,1,3,8,1,39.4076195960557,-32.9601231777364,
167.811,0.302999999999997,1,1,3,8,1,39.4179932362387,-32.9824069111263,
167.822,0.313999999999993,1,1,3,8,1,39.4284804232713,-33.0373353403915,
167.833,0.324999999999989,1,1,3,8,1,39.4406208524346,-32.8606397098751,
167.844,0.335999999999984,1,1,3,8,1,39.4516984830853,-32.965645434031,
167.854,0.346000000000004,1,1,3,8,1,39.460591472349,-33.0070188575977,
167.865,0.356999999999999,1,1,3,8,1,39.4748620404115,-32.8918137373447,
167.876,0.367999999999995,1,1,3,8,1,39.4846770300942,-32.8855872173066,
167.887,0.378999999999991,1,1,3,8,1,39.4953095570943,-32.7581983342911,
167.898,0.389999999999986,1,1,3,8,1,39.5066642420582,-32.926844644492,
167.908,0.400000000000006,1,1,3,8,1,39.5160250443423,-32.9840722877433,
167.919,0.411000000000001,1,1,3,8,1,39.5279020448145,-32.7924462658647,
167.93,0.421999999999997,1,1,3,8,1,39.5367904922042,-32.85914832783,
167.941,0.432999999999993,1,1,3,8,1,39.5489172957455,-32.7624114885683,
167.952,0.443999999999988,1,1,3,8,1,39.5597950839409,-32.8035280630051,
167.962,0.454000000000008,1,1,3,8,1,39.5719809318441,-32.7921935594626,
167.973,0.465000000000003,1,1,3,8,1,39.5827724244337,-32.6759610426897,
167.984,0.475999999999999,1,1,3,8,1,39.5935820845192,-32.6935924926446,
167.995,0.486999999999995,1,1,3,8,1,39.6066763072195,-32.6925029552062,
168.006,0.49799999999999,1,1,3,8,1,39.6135345369377,-32.9373796015492,
168.017,0.508999999999986,1,1,3,8,1,39.6266378433859,-32.7489931928907,
168.027,0.519000000000005,1,1,3,8,1,39.6380016120977,-32.8224230449704,
168.038,0.530000000000001,1,1,3,8,1,39.6485478434921,-32.6675761614141,
168.049,0.540999999999997,1,1,3,8,1,39.6580676113658,-32.7428950974176,
168.06,0.551999999999993,1,1,3,8,1,39.6715433514808,-32.6772204319722,
168.071,0.562999999999988,1,1,3,8,1,39.6832205094976,-32.6838612248006,
168.081,0.573000000000008,1,1,3,8,1,39.6915412226391,-32.617855141123,
168.092,0.584000000000003,1,1,3,8,1,39.7037906567781,-32.6644111172963,
168.103,0.594999999999999,1,1,3,8,1,39.7148773711768,-32.7060786745441,
168.114,0.605999999999995,1,1,3,8,1,39.7248967451889,-32.6976979359964,
168.125,0.61699999999999,1,1,3,8,1,39.734589104274,-32.7676644675493,
168.136,0.627999999999986,1,1,3,8,1,39.7468612477829,-32.7965889937676,
168.146,0.638000000000005,1,1,3,8,1,39.7561720894532,-32.5567913318336,
168.157,0.649000000000001,1,1,3,8,1,39.7673678088275,-32.6348278973414,
168.168,0.659999999999997,1,1,3,8,1,39.7796399523364,-32.6339289253864,
168.179,0.670999999999992,1,1,3,8,1,39.7914897015647,-32.6780489775528,
168.19,0.681999999999988,1,1,3,8,1,39.8022494010364,-32.6948353110155,
168.2,0.692000000000007,1,1,3,8,1,39.8113694839993,-32.4662768698821,
168.211,0.703000000000003,1,1,3,8,1,39.824018603049,-32.5669782997469,
168.222,0.713999999999999,1,1,3,8,1,39.8327390011013,-32.7126324700866,
168.233,0.724999999999994,1,1,3,8,1,39.8447840509109,-32.6420072447972,
168.244,0.73599999999999,1,1,3,8,1,39.8560933171348,-32.6606080930814,
168.255,0.746999999999986,1,1,3,8,1,39.8671073615497,-32.3735460485026,
168.265,0.757000000000005,1,1,3,8,1,39.8767997206349,-32.46628101261,
168.276,0.768000000000001,1,1,3,8,1,39.8884677949037,-32.5107531966481,
168.287,0.778999999999996,1,1,3,8,1,39.9000631991887,-32.5632788437296,
168.298,0.789999999999992,1,1,3,8,1,39.9089970653183,-32.5842161905511,
168.309,0.800999999999988,1,1,3,8,1,39.9216643518639,-32.5254391670641,
168.319,0.811000000000007,1,1,3,8,1,39.9326829381528,-32.5684945381594,
168.33,0.822000000000003,1,1,3,8,1,39.9428476521324,-32.5957578304887,
168.341,0.832999999999998,1,1,3,8,1,39.9539434502791,-32.5272619673414,
168.352,0.843999999999994,1,1,3,8,1,39.9647939872305,-32.459027096052,
168.363,0.85499999999999,1,1,3,8,1,39.9766482783327,-32.3355158063536,
168.374,0.865999999999985,1,1,3,8,1,39.986281593056,-32.2466377219238,
168.384,0.876000000000005,1,1,3,8,1,39.9953199222872,-32.3530685444784,
168.395,0.887,1,1,3,8,1,40.0079236225971,-32.4802875756499,
168.406,0.897999999999996,1,1,3,8,1,40.0194418150244,-32.3894458381941,
168.417,0.908999999999992,1,1,3,8,1,40.0289207060322,-32.3019141403328,
168.428,0.919999999999987,1,1,3,8,1,40.0409566720938,-32.2042907572999,
168.438,0.930000000000007,1,1,3,8,1,40.0525657020008,-32.4573492912513,
168.449,0.941000000000003,1,1,3,8,1,40.0650013529732,-32.4127196835529,
168.46,0.951999999999998,1,1,3,8,1,40.072595366277,-32.4213614139584,
168.471,0.962999999999994,1,1,3,8,1,40.0836775388017,-32.1277870011162,
168.482,0.97399999999999,1,1,3,8,1,40.0984204617587,-32.2158158263259,
168.493,0.984999999999985,1,1,3,8,1,40.1079947321202,-32.2549438913692,
168.503,0.995000000000005,1,1,3,8,1,40.1188316434497,-32.4446932575078,
168.514,1.006,1,1,3,8,1,40.1292007417587,-32.2951242092999,
168.525,1.017,1,1,3,8,1,40.1401284905679,-32.0997407332133,
168.536,1.02799999999999,1,1,3,8,1,40.1505157563728,-32.1690775701249,
168.547,1.03899999999999,1,1,3,8,1,40.1611755346168,-32.0881203814455,
168.557,1.04900000000001,1,1,3,8,1,40.1707089281124,-32.2381202733553,
168.568,1.06,1,1,3,8,1,40.183094618471,-32.1672837689429,
168.579,1.071,1,1,3,8,1,40.1947808602357,-32.1051469931266,
168.59,1.08199999999999,1,1,3,8,1,40.2059674958621,-31.936442684735,
168.601,1.09299999999999,1,1,3,8,1,40.2165500622484,-32.0926690966829,
168.612,1.10399999999998,1,1,3,8,1,40.2294308168713,-32.0635001495183,
168.622,1.114,1,1,3,8,1,40.2384555204806,-32.2245279831058,
168.633,1.125,1,1,3,8,1,40.2495694861232,-32.0021670629152,
168.644,1.136,1,1,3,8,1,40.2598295794565,-31.9090923951197,
168.655,1.14699999999999,1,1,3,8,1,40.2721834766971,-31.8635762436501,
168.666,1.15799999999999,1,1,3,8,1,40.2833791960714,-32.0488473209256,
168.676,1.16800000000001,1,1,3,8,1,40.2906098594564,-32.0119190443987,
168.687,1.179,1,1,3,8,1,40.3023733130789,-31.8802672943711,
168.698,1.19,1,1,3,8,1,40.3151586883482,-31.8770193956951,
168.709,1.20099999999999,1,1,3,8,1,40.3252961510839,-31.7618018472584,
168.72,1.21199999999999,1,1,3,8,1,40.3371231909422,-31.8563264698199,
168.731,1.22299999999998,1,1,3,8,1,40.3493726250812,-31.9313926994213,
168.741,1.233,1,1,3,8,1,40.3587198017434,-31.6687354649188,
168.752,1.244,1,1,3,8,1,40.370456004122,-31.830115430378,
168.763,1.255,1,1,3,8,1,40.3786949635318,-31.757041852898,
168.774,1.26599999999999,1,1,3,8,1,40.3908353926951,-31.8132420996293,
168.785,1.27699999999999,1,1,3,8,1,40.4025897625696,-31.8556056351648,
168.795,1.28700000000001,1,1,3,8,1,40.4123502497645,-31.6729403337403,
168.806,1.298,1,1,3,8,1,40.4245769745336,-31.5780014383885,
168.817,1.309,1,1,3,8,1,40.4333337075777,-31.5292166746034,
168.828,1.31999999999999,1,1,3,8,1,40.4425945886342,-31.7988005501596,
168.839,1.33099999999999,1,1,3,8,1,40.4583730588599,-31.7407236476883,
168.85,1.34199999999998,1,1,3,8,1,40.4665847670257,-31.5257077840696,
168.86,1.352,1,1,3,8,1,40.4759819043018,-31.3522517667733,
168.871,1.363,1,1,3,8,1,40.4893713488111,-31.3781852434457,
168.882,1.374,1,1,3,8,1,40.5012983098971,-31.5913078804127,
168.893,1.38499999999999,1,1,3,8,1,40.5100414173193,-31.6447697840002,
168.904,1.39599999999999,1,1,3,8,1,40.5224589007957,-31.5317893086311,
168.914,1.40600000000001,1,1,3,8,1,40.5325100679257,-31.2961219464163,
168.925,1.417,1,1,3,8,1,40.5437602897878,-31.4947408929951,
168.936,1.428,1,1,3,8,1,40.5538205406658,-31.3327933738132,
168.947,1.43899999999999,1,1,3,8,1,40.5638717077958,-31.5388112324266,
168.958,1.44999999999999,1,1,3,8,1,40.5777789259394,-31.427305568191,
168.969,1.46099999999998,1,1,3,8,1,40.5872214819554,-31.3176682742395,
168.979,1.471,1,1,3,8,1,40.5973135259512,-31.2945725661806,
168.99,1.482,1,1,3,8,1,40.6114024190543,-31.3168273004752,
169.001,1.493,1,1,3,8,1,40.6198139696755,-31.3702560622395,
169.012,1.50399999999999,1,1,3,8,1,40.6302284867243,-31.1705392927664,
169.023,1.51499999999999,1,1,3,8,1,40.6420646103306,-31.1938007099415,
169.033,1.52500000000001,1,1,3,8,1,40.6522384080582,-31.1919737669363,
169.044,1.536,1,1,3,8,1,40.6641699110182,-31.1227570691339,
169.055,1.547,1,1,3,8,1,40.6748523986322,-31.1717738256815,
169.066,1.55799999999999,1,1,3,8,1,40.6838225997536,-31.094876510347,
169.077,1.56899999999999,1,1,3,8,1,40.6986926951822,-30.9372332854563,
169.087,1.57900000000001,1,1,3,8,1,40.7068453589862,-30.8756972051859,
169.098,1.59,1,1,3,8,1,40.7177095215596,-31.0428231342465,
169.109,1.601,1,1,3,8,1,40.7271293682056,-31.0848759651893,
169.12,1.61199999999999,1,1,3,8,1,40.7396376891617,-30.8656966600282,
169.131,1.62299999999999,1,1,3,8,1,40.7510968372272,-30.7843334840144,
169.142,1.63399999999999,1,1,3,8,1,40.7619519160526,-30.7595019729641,
169.152,1.64400000000001,1,1,3,8,1,40.7714035558165,-30.761001640465,
169.163,1.655,1,1,3,8,1,40.7840072561264,-30.7434406168844,
169.174,1.666,1,1,3,8,1,40.7933953096545,-30.6497859671825,
169.185,1.67699999999999,1,1,3,8,1,40.8048680833419,-30.5671841155257,
169.196,1.68799999999999,1,1,3,8,1,40.815196304785,-30.6693479283402,
169.206,1.69800000000001,1,1,3,8,1,40.8258424574071,-30.7507483889052,
169.217,1.709,1,1,3,8,1,40.8370472605294,-30.7695025181218,
169.228,1.72,1,1,3,8,1,40.8458812054312,-30.6208862973316,
169.239,1.73099999999999,1,1,3,8,1,40.858830088164,-30.4098143106766,
169.25,1.74199999999999,1,1,3,8,1,40.8711203991688,-30.219381394434,
169.261,1.75299999999999,1,1,3,8,1,40.8814985812257,-30.4050294599487,
169.271,1.76300000000001,1,1,3,8,1,40.8926397981122,-30.4345215398897,
169.282,1.774,1,1,3,8,1,40.9015282455019,-30.3920668643403,
169.293,1.785,1,1,3,8,1,40.9142318670395,-30.2770937368499,
169.304,1.79599999999999,1,1,3,8,1,40.9236925905513,-30.1863389966801,
169.315,1.80699999999999,1,1,3,8,1,40.937290961264,-30.1816204295986,
169.325,1.81700000000001,1,1,3,8,1,40.946379251109,-30.1736953911203,
169.336,1.828,1,1,3,8,1,40.9560080239584,-30.2903338952277,
169.347,1.839,1,1,3,8,1,40.9681802462396,-30.1744576530544,
169.358,1.84999999999999,1,1,3,8,1,40.9801480841914,-29.9555269115675,
169.369,1.86099999999999,1,1,3,8,1,40.9904127193987,-30.0590702527737,
169.38,1.87199999999999,1,1,3,8,1,41.0014176800657,-30.0595135246593,
169.39,1.88200000000001,1,1,3,8,1,41.0118639902324,-29.8986762565554,
169.401,1.893,1,1,3,8,1,41.021728940529,-30.0374659267599,
169.412,1.904,1,1,3,8,1,41.0304175454633,-29.8707542704896,
169.423,1.91499999999999,1,1,3,8,1,41.0463050206647,-29.9323027789436,
169.434,1.92599999999999,1,1,3,8,1,41.0541806301556,-29.7867977468085,
169.444,1.93600000000001,1,1,3,8,1,41.065975876896,-29.7864994703995,
169.455,1.947,1,1,3,8,1,41.0755501472575,-29.8923710246871,
169.466,1.958,1,1,3,8,1,41.0873272265019,-29.6766881818761,
169.477,1.96899999999999,1,1,3,8,1,41.0971512999326,-29.7831811453492,
169.488,1.97999999999999,1,1,3,8,1,41.1088193742015,-29.7246444000806,
169.499,1.99099999999999,1,1,3,8,1,41.1212368576779,-29.666575783065,
169.509,2.001,1,1,3,8,1,41.1292350977664,-29.5461922529333,
169.52,2.012,1,1,3,8,1,41.142224857365,-29.5067369123857,
169.531,2.023,1,1,3,8,1,41.1524031969666,-29.4512077875746,
169.542,2.03399999999999,1,1,3,8,1,41.162004718572,-29.6055616865104,
169.553,2.04499999999999,1,1,3,8,1,41.1758029317401,-29.6277211380633,
169.563,2.05500000000001,1,1,3,8,1,41.1840827680157,-29.3793024593632,
169.574,2.066,1,1,3,8,1,41.1956191279389,-29.3012286093043,
169.585,2.077,1,1,3,8,1,41.2066785910937,-29.436720668098,
169.596,2.08799999999999,1,1,3,8,1,41.2160621027478,-29.3361393773424,
169.607,2.09899999999999,1,1,3,8,1,41.2296423059645,-29.514703378143,
169.618,2.10999999999999,1,1,3,8,1,41.2397116405904,-29.3376680439386,
169.628,2.12,1,1,3,8,1,41.2496310933748,-29.1714286586492,
169.639,2.131,1,1,3,8,1,41.2613355026355,-29.0931849567463,
169.65,2.142,1,1,3,8,1,41.271218620428,-29.0870785758174,
169.661,2.15299999999999,1,1,3,8,1,41.2841811287827,-29.2563048679248,
169.672,2.16399999999999,1,1,3,8,1,41.2931831230221,-28.9854160330791,
169.682,2.17400000000001,1,1,3,8,1,41.3044515123802,-28.9395436070098,
169.693,2.185,1,1,3,8,1,41.3152066699779,-28.8859947061363,
169.704,2.196,1,1,3,8,1,41.3235728018592,-28.9014222248469,
169.715,2.20699999999999,1,1,3,8,1,41.3369032020068,-28.8779702421883,
169.726,2.21799999999999,1,1,3,8,1,41.3485303994097,-28.9319996994985,
169.737,2.22899999999999,1,1,3,8,1,41.3611886022074,-28.6873260468227,
169.747,2.239,1,1,3,8,1,41.3696410296945,-28.7657064587464,
169.758,2.25,1,1,3,8,1,41.3787565707834,-28.834020041866,
169.769,2.261,1,1,3,8,1,41.3909106255687,-28.698664693093,
169.78,2.27199999999999,1,1,3,8,1,41.4032872321793,-28.5062515529129,
169.791,2.28299999999999,1,1,3,8,1,41.4123982313942,-28.6274097731624,
169.801,2.29300000000001,1,1,3,8,1,41.4231125121261,-28.4937612282855,
169.812,2.304,1,1,3,8,1,41.4341946846508,-28.5177973355784,
169.823,2.315,1,1,3,8,1,41.4456356652203,-28.6128315136719,
169.834,2.32599999999999,1,1,3,8,1,41.4568540939646,-28.459123880289,
169.845,2.33699999999999,1,1,3,8,1,41.4655881176388,-28.2785340855438,
169.856,2.34799999999998,1,1,3,8,1,41.478378034782,-28.2106016333913,
169.866,2.358,1,1,3,8,1,41.488728965595,-28.2937668960429,
169.877,2.369,1,1,3,8,1,41.4981715216109,-28.3577678994155,
169.888,2.38,1,1,3,8,1,41.5128508583322,-28.2974373529649,
169.899,2.39099999999999,1,1,3,8,1,41.5220890300187,-28.0647817539355,
169.91,2.40199999999999,1,1,3,8,1,41.5341340798284,-28.1143577787501,
169.92,2.41200000000001,1,1,3,8,1,41.540828802083,-28.0880928838454,
169.931,2.423,1,1,3,8,1,41.5529964824903,-28.2009987901123,
169.942,2.434,1,1,3,8,1,41.5654230497147,-28.0435088461539,
169.953,2.44499999999999,1,1,3,8,1,41.5750972413038,-27.8584614761852,
169.964,2.45599999999999,1,1,3,8,1,41.5847078466572,-27.689011476771,
169.975,2.46699999999998,1,1,3,8,1,41.5966756846091,-27.8123529146254,
169.985,2.477,1,1,3,8,1,41.6083392170039,-27.7733615596029,
169.996,2.488,1,1,3,8,1,41.6187719015487,-27.7062037975682,
170.007,2.499,1,1,3,8,1,41.6288684874185,-27.648802159745,
170.018,2.50999999999999,1,1,3,8,1,41.6401414186506,-27.720255930615,
170.029,2.52099999999999,1,1,3,8,1,41.6509419949882,-27.5284476287087,
170.039,2.53100000000001,1,1,3,8,1,41.6612747583053,-27.7152225162129,
170.05,2.542,1,1,3,8,1,41.6712532554515,-27.4854295421645,
170.061,2.553,1,1,3,8,1,41.6824853098177,-27.3867787626117,
170.072,2.56399999999999,1,1,3,8,1,41.6966105379127,-27.4952395218387,
170.083,2.57499999999999,1,1,3,8,1,41.7058577933472,-27.2950173395614,
170.093,2.58500000000001,1,1,3,8,1,41.7173896113965,-27.331958044272,
170.104,2.596,1,1,3,8,1,41.7271455567174,-27.2700366903067,
170.115,2.607,1,1,3,8,1,41.7367516201968,-27.0618397568163,
170.126,2.618,1,1,3,8,1,41.7484424038355,-27.010759921773,
170.137,2.62899999999999,1,1,3,8,1,41.7595563694781,-27.118408706331,
170.148,2.63999999999999,1,1,3,8,1,41.7705068276573,-27.0901387311213,
170.158,2.65000000000001,1,1,3,8,1,41.7805443691653,-27.0014180703518,
170.169,2.661,1,1,3,8,1,41.7927211333205,-26.9258298570347,
170.18,2.672,1,1,3,8,1,41.8008465458806,-26.8153805884143,
170.191,2.68299999999999,1,1,3,8,1,41.8131868174993,-26.8141253418597,
170.202,2.69399999999999,1,1,3,8,1,41.8231562308975,-26.8633409493467,
170.212,2.70400000000001,1,1,3,8,1,41.8351331525973,-26.7446766512947,
170.223,2.715,1,1,3,8,1,41.8461290295163,-26.7377210111457,
170.234,2.726,1,1,3,8,1,41.8574428376143,-26.6023366632774,
170.245,2.73699999999999,1,1,3,8,1,41.8675212559881,-26.5706447948199,
170.256,2.74799999999999,1,1,3,8,1,41.8796162664116,-26.5476526549586,
170.267,2.75899999999999,1,1,3,8,1,41.8902351677898,-26.4853170282029,
170.277,2.76900000000001,1,1,3,8,1,41.8985059203174,-26.3661141755236,
170.288,2.78,1,1,3,8,1,41.9144751492505,-26.3290947589829,
170.299,2.791,1,1,3,8,1,41.9212925021028,-26.2724760967333,
170.31,2.80199999999999,1,1,3,8,1,41.9329832857416,-26.3509600768546,
170.321,2.81299999999999,1,1,3,8,1,41.9442062563598,-26.3359716873018,
170.331,2.82300000000001,1,1,3,8,1,41.9539531179328,-26.1836932950453,
170.342,2.834,1,1,3,8,1,41.9648399898761,-26.1360933514405,
170.353,2.845,1,1,3,8,1,41.9774482320599,-26.1605851588027,
170.364,2.85599999999999,1,1,3,8,1,41.9889755082352,-26.1513675892186,
170.375,2.86699999999999,1,1,3,8,1,41.9980955911981,-25.9360410210073,
170.386,2.87799999999999,1,1,3,8,1,42.0095592811376,-25.9939066443556,
170.396,2.88800000000001,1,1,3,8,1,42.0198102907229,-25.7630862737872,
170.407,2.899,1,1,3,8,1,42.0330725627607,-25.8854417424007,
170.418,2.91,1,1,3,8,1,42.0404485661132,-25.8325391070801,
170.429,2.92099999999999,1,1,3,8,1,42.0515761573777,-25.649724667451,
170.44,2.93199999999999,1,1,3,8,1,42.0635349115816,-25.7989830110662,
170.45,2.94200000000001,1,1,3,8,1,42.0735315762238,-25.4598717331149,
170.461,2.953,1,1,3,8,1,42.0854085766959,-25.6461867778219,
170.472,2.964,1,1,3,8,1,42.0946739996264,-25.6133805155585,
170.483,2.97499999999999,1,1,3,8,1,42.1076501336031,-25.614552907555,
170.494,2.98599999999999,1,1,3,8,1,42.1175377932695,-25.4565699789762,
170.505,2.99699999999999,1,1,3,8,1,42.1297236411727,-25.3826181431808,
170.515,3.00700000000001,1,1,3,8,1,42.1396521777051,-25.3664822179988,
170.526,3.018,1,1,3,8,1,42.1504073353028,-25.4773374739537,
170.537,3.029,1,1,3,8,1,42.1613169166161,-25.3268943101583,
170.548,3.03999999999999,1,1,3,8,1,42.17074584701,-25.2348470388827,
170.559,3.05099999999999,1,1,3,8,1,42.1840308284177,-25.2060177954061,
170.569,3.06100000000001,1,1,3,8,1,42.1937050200069,-25.0917323607476,
170.58,3.072,1,1,3,8,1,42.2032929159903,-25.1258560104841,
170.591,3.083,1,1,3,8,1,42.2156876900968,-24.9541150825397,
170.602,3.09399999999999,1,1,3,8,1,42.2231863240469,-25.0428813133161,
