"Total Time (s)","Cycle Elapsed Time (s)","Total Cycles","Elapsed Cycles","Step","Total Cycle Count(8800 (0,4) Waveform)","Position(8800 (0,4):Position) (mm)","Load(8800 (0,4):Load) (N)",
26.112,0,1,1,7,1,48.0183086821509,-24.8962536019192,
26.123,0.0109999999999992,1,1,7,1,48.0177227804067,-24.8852339456974,
26.134,0.0219999999999985,1,1,7,1,48.0161376663858,-24.88682889594,
26.144,0.032,1,1,7,1,48.0161785432516,-24.6782466887546,
26.155,0.0429999999999993,1,1,7,1,48.0183041402769,-24.7315138841307,
26.166,0.0539999999999985,1,1,7,1,48.0171550461585,-24.8485045201099,
26.169,0.0569999999999986,1,1,7,1,48.0191353032162,-24.8075370838777,
26.176,0.0640000000000001,1,1,7,1,48.0179317066101,-24.9097257530596,
26.187,0.0749999999999993,1,1,7,1,48.0178045341385,-24.5955578398119,
26.188,0.075999999999997,1,1,7,1,48.0175592729433,-24.5571133248725,
26.198,0.0859999999999985,1,1,7,1,48.0180997559475,-24.7468295491879,
26.208,0.0960000000000001,1,1,7,1,48.0172458836382,-24.8937265378984,
26.219,0.106999999999999,1,1,7,1,48.0179271647361,-24.8582523588655,
26.23,0.117999999999999,1,1,7,1,48.0173639723619,-24.8265397767685,
26.24,0.128,1,1,7,1,48.0179725834759,-24.6573134846611,
26.251,0.138999999999999,1,1,7,1,48.0163556763371,-24.7502555851636,
26.262,0.149999999999999,1,1,7,1,48.0169234105853,-24.866641382869,
26.272,0.16,1,1,7,1,48.0165237256745,-24.7539633266368,
26.283,0.170999999999999,1,1,7,1,48.0167962381137,-24.7922504179158,
26.294,0.181999999999999,1,1,7,1,48.0184812733623,-24.7075192041169,
26.304,0.192,1,1,7,1,48.0174003073538,-24.8395065151047,
26.315,0.202999999999999,1,1,7,1,48.016705400634,-24.8569142577529,
26.326,0.213999999999999,1,1,7,1,48.0171550461585,-24.749812313278,
26.336,0.224,1,1,7,1,48.0164465138168,-24.6570359218916,
26.347,0.234999999999999,1,1,7,1,48.0169415780812,-24.7897564957182,
26.358,0.245999999999999,1,1,7,1,48.0171505042846,-24.9268973602173,
26.368,0.256,1,1,7,1,48.0150884934951,-24.8751505459816,
26.379,0.266999999999999,1,1,7,1,48.016078622024,-24.7269817398049,
26.39,0.277999999999999,1,1,7,1,48.0147705623161,-24.766076663025,
26.4,0.288,1,1,7,1,48.0157288977271,-24.8895755245397,
26.411,0.298999999999999,1,1,7,1,48.0146615573405,-24.870183415226,
26.422,0.309999999999999,1,1,7,1,48.0161240407638,-24.8770644862728,
26.432,0.32,1,1,7,1,48.0146115967266,-24.6901156041966,
26.443,0.331,1,1,7,1,48.0137304731734,-24.6707234948829,
26.454,0.341999999999999,1,1,7,1,48.0149976560154,-24.7593654438222,
26.464,0.352,1,1,7,1,48.0160513707801,-24.9040585012884,
26.475,0.363,1,1,7,1,48.0152565428326,-24.6870831273716,
26.486,0.373999999999999,1,1,7,1,48.0149613210235,-24.6996521638292,
26.496,0.384,1,1,7,1,48.0149567791495,-24.7677006123629,
26.507,0.395,1,1,7,1,48.0131899901692,-24.9198340091428,
26.518,0.405999999999999,1,1,7,1,48.0139439412508,-24.6930569410077,
26.528,0.416,1,1,7,1,48.0135306307181,-24.695902995077,
26.539,0.427,1,1,7,1,48.0131400295553,-24.7650699801446,
26.55,0.437999999999999,1,1,7,1,48.0146933504584,-24.8666455255969,
26.56,0.448,1,1,7,1,48.0141119905882,-24.8214607923595,
26.571,0.459,1,1,7,1,48.0139257737548,-24.8389555322936,
26.582,0.469999999999999,1,1,7,1,48.0139121481329,-24.7347824964461,
26.592,0.48,1,1,7,1,48.0147614785682,-24.9106578668378,
26.603,0.491,1,1,7,1,48.0147342273243,-24.9078946673265,
26.614,0.501999999999999,1,1,7,1,48.0130582758236,-24.8956363354617,
26.624,0.512,1,1,7,1,48.0120499797988,-24.7019182359921,
26.635,0.523,1,1,7,1,48.0136623450637,-24.8295722535934,
26.646,0.533999999999999,1,1,7,1,48.0128993102341,-24.9086610719885,
26.657,0.544999999999998,1,1,7,1,48.0123406597339,-24.8910834774963,
26.667,0.555,1,1,7,1,48.0119409748231,-24.8544037646437,
26.678,0.565999999999999,1,1,7,1,48.0129628964699,-24.7698672590562,
26.689,0.576999999999998,1,1,7,1,48.0128947683601,-24.713745724155,
26.699,0.587,1,1,7,1,48.0137123056775,-24.9205797001653,
26.71,0.597999999999999,1,1,7,1,48.0129765220918,-24.8099647224288,
26.721,0.608999999999998,1,1,7,1,48.0118910142093,-24.725100941337,
26.731,0.619,1,1,7,1,48.0112097331115,-24.7942430700371,
26.742,0.629999999999999,1,1,7,1,48.0111052700098,-24.9114449851393,
26.753,0.640999999999998,1,1,7,1,48.0133217045148,-24.8513754305466,
26.763,0.651,1,1,7,1,48.0133307882627,-24.6821905657183,
26.774,0.661999999999999,1,1,7,1,48.0128357239983,-24.6728901415761,
26.785,0.672999999999998,1,1,7,1,48.0125087090713,-24.7187708531013,
26.795,0.683,1,1,7,1,48.0128493496203,-24.8610197011047,
26.806,0.693999999999999,1,1,7,1,48.0132263251611,-24.9102187376801,
26.817,0.704999999999998,1,1,7,1,48.013562423836,-24.6324032617807,
26.827,0.715,1,1,7,1,48.0133852907505,-24.8103002833889,
26.838,0.725999999999999,1,1,7,1,48.0129492708479,-24.8917587421445,
26.849,0.736999999999998,1,1,7,1,48.0118773885874,-24.8969495802069,
26.859,0.747,1,1,7,1,48.011364156827,-24.7480599393751,
26.878,0.765999999999998,1,1,7,1,48.0122044035143,-24.9038306512537,
26.888,0.776,1,1,7,1,48.0119091817053,-24.6931397955657,
26.899,0.786999999999999,1,1,7,1,48.0119273492012,-24.6781265496455,
26.91,0.797999999999998,1,1,7,1,48.0126722165348,-24.9530255451012,
26.92,0.808,1,1,7,1,48.0118910142093,-24.8798773985189,
26.931,0.818999999999999,1,1,7,1,48.0114731618026,-24.7873702844461,
26.942,0.829999999999998,1,1,7,1,48.0110371419,-24.7227313009765,
26.952,0.84,1,1,7,1,48.0112142749855,-24.8784357292087,
26.963,0.850999999999999,1,1,7,1,48.0105920382494,-24.9176880760891,
26.974,0.861999999999998,1,1,7,1,48.0109826394122,-24.954997483583,
26.984,0.872,1,1,7,1,48.0106510826113,-24.7695441262797,
27.001,0.888999999999999,1,1,7,1,48.0103286095583,-24.9495456536627,
27.012,0.899999999999999,1,1,7,1,48.0118592210914,-24.8387276822589,
27.022,0.91,1,1,7,1,48.012622255921,-24.876629499843,
27.033,0.920999999999999,1,1,7,1,48.0131581970513,-24.7546178776454,
27.044,0.931999999999999,1,1,7,1,48.0111870237416,-24.7862351770007,
27.054,0.942,1,1,7,1,48.0111098118838,-24.8605847146749,
27.065,0.952999999999999,1,1,7,1,48.0111643143716,-24.997551584602,
27.076,0.963999999999999,1,1,7,1,48.0109372206723,-24.742471399434,
27.086,0.974,1,1,7,1,48.0107873388308,-24.639557752869,
27.097,0.984999999999999,1,1,7,1,48.0114277430628,-24.8217010705778,
27.108,0.995999999999999,1,1,7,1,48.011345989331,-24.8816463433334,
27.118,1.006,1,1,7,1,48.0106510826113,-24.8636254769556,
27.129,1.017,1,1,7,1,48.0106238313673,-24.8895962381792,
27.131,1.019,1,1,7,1,48.0109735556642,-25.1083322714547,
27.14,1.028,1,1,7,1,48.0100651808671,-24.7454955908032,
27.15,1.038,1,1,7,1,48.0107918807048,-24.891738028505,
27.161,1.049,1,1,7,1,48.0113369055831,-24.9825341959539,
27.172,1.06,1,1,7,1,48.0106011219974,-24.9149455902173,
27.175,1.063,1,1,7,1,48.011364156827,-24.8977366985085,
27.182,1.07,1,1,7,1,48.0107146688471,-24.8752541141792,
27.193,1.081,1,1,7,1,48.009788126554,-24.9491396663282,
27.204,1.092,1,1,7,1,48.0110280581521,-24.8493330656905,
27.214,1.102,1,1,7,1,48.0108736344366,-24.9880523095206,
27.225,1.113,1,1,7,1,48.0100878902371,-24.803170648668,
27.236,1.124,1,1,7,1,48.0102241464566,-24.8069281028759,
27.246,1.134,1,1,7,1,48.0098698802857,-24.9212508220856,
27.25,1.138,1,1,7,1,48.0087707467813,-24.957686113992,
27.253,1.141,1,1,7,1,48.010119683355,-24.8330355741203,
27.263,1.151,1,1,7,1,48.0095474072328,-24.9740374610249,
27.274,1.162,1,1,7,1,48.0115367480384,-24.9705285704911,
27.285,1.173,1,1,7,1,48.0109099694284,-24.7712260738083,
27.295,1.183,1,1,7,1,48.009165889818,-24.9548856299296,
27.306,1.194,1,1,7,1,48.0109780975382,-24.8938383915518,
27.317,1.205,1,1,7,1,48.0099198408996,-24.9666095498949,
27.327,1.215,1,1,7,1,48.0098153777979,-24.8929394195969,
27.336,1.224,1,1,8,1,48.0092203923058,-24.928107036765,
27.336,0,1,1,8,1,48.0092203923058,-24.928107036765,
27.339,0.00300000000000011,1,1,8,1,48.0104421564079,-24.6798002117183,
27.341,0.00499999999999901,1,1,8,1,48.0090886779602,-24.8708586798742,
27.352,0.0159999999999982,1,1,8,1,48.0084755249722,-24.8827855935068,
27.362,0.0259999999999998,1,1,8,1,47.9973888105735,-24.740379321843,
27.373,0.036999999999999,1,1,8,1,47.9839221542064,-24.8535213636003,
27.384,0.0479999999999983,1,1,8,1,47.9750337068167,-24.8707012562139,
27.394,0.0579999999999998,1,1,8,1,47.9655775251789,-24.8516778496835,
27.405,0.0689999999999991,1,1,8,1,47.9533962191497,-24.9119006852086,
27.416,0.0799999999999983,1,1,8,1,47.9446485698536,-24.9592396369556,
27.426,0.0899999999999999,1,1,8,1,47.9328533231131,-25.0548620824114,
27.437,0.100999999999999,1,1,8,1,47.9197591004129,-25.0938120101549,
27.448,0.111999999999998,1,1,8,1,47.9099259432342,-25.1982377524044,
27.458,0.122,1,1,8,1,47.8995568449252,-25.0053440557875,
27.469,0.132999999999999,1,1,8,1,47.8891241603805,-25.1360471211254,
27.48,0.143999999999998,1,1,8,1,47.8773834161279,-25.157833727167,
27.49,0.154,1,1,8,1,47.8674548795955,-25.0796977361895,
27.501,0.164999999999999,1,1,8,1,47.8548284699157,-25.2645835397701,
27.512,0.175999999999998,1,1,8,1,47.8446137953223,-25.0566020281306,
27.522,0.186,1,1,8,1,47.8348669337493,-25.5359446455967,
27.533,0.196999999999999,1,1,8,1,47.8247521803836,-25.2854753165846,
27.544,0.207999999999998,1,1,8,1,47.8141060277615,-25.3615772281617,
27.554,0.218,1,1,8,1,47.8024606628626,-25.4055439993957,
27.565,0.228999999999999,1,1,8,1,47.7915192884314,-25.4710985257319,
27.576,0.239999999999998,1,1,8,1,47.779746751061,-26.0277610167785,
27.586,0.25,1,1,8,1,47.770018056984,-26.0904694890454,
27.597,0.260999999999999,1,1,8,1,47.7583091058493,-25.7740686454579,
27.608,0.271999999999998,1,1,8,1,47.7461277998201,-25.944633038678,
27.618,0.282,1,1,8,1,47.7384702002805,-26.0613999673504,
27.629,0.292999999999999,1,1,8,1,47.7257938299869,-26.0505667338842,
27.64,0.303999999999998,1,1,8,1,47.7161832246335,-26.0465855723695,
27.65,0.314,1,1,8,1,47.7070585997965,-25.9382242386121,
27.661,0.324999999999999,1,1,8,1,47.694064298324,-25.9934343733747,
27.672,0.335999999999999,1,1,8,1,47.6856345802068,-26.2283809009344,
27.682,0.346,1,1,8,1,47.6739437965681,-25.9395374833574,
27.693,0.356999999999999,1,1,8,1,47.6620849635918,-25.9683087286433,
27.704,0.367999999999999,1,1,8,1,47.6505622292906,-26.0506040184353,
27.714,0.378,1,1,8,1,47.6423005605109,-26.0507987266468,
27.725,0.388999999999999,1,1,8,1,47.6311956786163,-26.270442017333,
27.736,0.399999999999999,1,1,8,1,47.6183421752372,-26.2512653298703,
27.746,0.41,1,1,8,1,47.6091403385425,-26.1633359301303,
27.757,0.420999999999999,1,1,8,1,47.5960052389764,-26.0956271852845,
27.768,0.431999999999999,1,1,8,1,47.5852546232526,-26.3011479165496,
27.778,0.442,1,1,8,1,47.5757984416148,-26.1480865487195,
27.789,0.452999999999999,1,1,8,1,47.563807894293,-26.29071652769,
27.8,0.463999999999999,1,1,8,1,47.5530663623172,-26.2161639963486,
27.81,0.474,1,1,8,1,47.5436873925371,-26.585281052501,
27.821,0.484999999999999,1,1,8,1,47.5320556532601,-26.4500251291978,
27.832,0.495999999999999,1,1,8,1,47.5230127821549,-26.4702250704525,
27.842,0.506,1,1,8,1,47.5082607754499,-26.3153533305288,
27.853,0.516999999999999,1,1,8,1,47.5019021518702,-26.2859938178806,
27.864,0.527999999999999,1,1,8,1,47.4877133375394,-26.5501134353329,
27.874,0.538,1,1,8,1,47.4805280928943,-26.500127280456,
27.885,0.548999999999999,1,1,8,1,47.4683604124871,-26.7045626170105,
27.896,0.559999999999999,1,1,8,1,47.4568785550517,-26.4197749300505,
27.907,0.570999999999998,1,1,8,1,47.4435299874082,-26.5819875838182,
27.917,0.581,1,1,8,1,47.4352728605025,-26.635818190189,
27.928,0.591999999999999,1,1,8,1,47.4237410424532,-26.6970891358736,
27.939,0.602999999999998,1,1,8,1,47.4132447716727,-26.641626294709,
27.949,0.613,1,1,8,1,47.4028802152377,-26.8232434859741,
27.96,0.623999999999999,1,1,8,1,47.3928290481077,-26.7379074339013,
27.971,0.634999999999998,1,1,8,1,47.3815742843716,-26.7746078603935,
27.981,0.645,1,1,8,1,47.3715458266115,-26.6700868354022,
27.992,0.655999999999999,1,1,8,1,47.360086678546,-26.5364880032601,
28.003,0.666999999999998,1,1,8,1,47.3508212556156,-26.8484519852635,
28.013,0.677,1,1,8,1,47.3392349350785,-26.906011046747,
28.024,0.687999999999999,1,1,8,1,47.3269264565777,-26.7917048984489,
28.035,0.698999999999998,1,1,8,1,47.3163484320654,-26.7475765608268,
28.045,0.709,1,1,8,1,47.3056886538214,-26.602866932449,
28.056,0.719999999999999,1,1,8,1,47.2948154075,-26.9034466981751,
28.067,0.730999999999998,1,1,8,1,47.2836696487395,-26.9209290099255,
28.077,0.741,1,1,8,1,47.2747085313661,-26.7734064693016,
28.088,0.751999999999999,1,1,8,1,47.263426516386,-26.8996602448718,
28.099,0.762999999999998,1,1,8,1,47.2526577331663,-26.8512938966049,
28.109,0.773,1,1,8,1,47.2419252849385,-27.1253353473847,
28.12,0.783999999999999,1,1,8,1,47.2325826501503,-26.8973817445252,
28.131,0.794999999999998,1,1,8,1,47.2209100340075,-27.2014496871455,
28.141,0.805,1,1,8,1,47.2085425111449,-26.8455106484524,
28.152,0.815999999999999,1,1,8,1,47.1990272851452,-27.1853013337798,
28.163,0.826999999999998,1,1,8,1,47.1888035268038,-26.9325120771421,
28.173,0.837,1,1,8,1,47.1788976996413,-26.8468114650139,
28.184,0.847999999999999,1,1,8,1,47.166779979848,-27.0495524258561,
28.195,0.858999999999998,1,1,8,1,47.1551209893271,-26.9392564381681,
28.205,0.869,1,1,8,1,47.1456648076892,-27.3632397826671,
28.216,0.879999999999999,1,1,8,1,47.1345417582987,-27.0183742556586,
28.227,0.890999999999998,1,1,8,1,47.1242589555954,-27.2175276141368,
28.237,0.901,1,1,8,1,47.1115780434278,-27.0625730196551,
28.248,0.911999999999999,1,1,8,1,47.1044473012706,-27.2624803546117,
28.259,0.922999999999998,1,1,8,1,47.0908307630619,-27.3474642748127,
28.269,0.933,1,1,8,1,47.0795305805859,-27.0296631891941,
28.28,0.943999999999999,1,1,8,1,47.0704922513547,-27.2568462446637,
28.291,0.954999999999998,1,1,8,1,47.0576932504635,-27.1005949763483,
28.301,0.965,1,1,8,1,47.0490409805211,-27.4189429020501,
28.312,0.975999999999999,1,1,8,1,47.0375591230857,-27.1954427316862,
28.323,0.986999999999998,1,1,8,1,47.0260727237763,-27.1381363766048,
28.333,0.997,1,1,8,1,47.0190282772247,-27.1239061062582,
28.344,1.008,1,1,8,1,47.0047758766581,-27.25179625935,
28.355,1.019,1,1,8,1,46.9946747489143,-27.4634565133673,
28.365,1.029,1,1,8,1,46.9851958579065,-27.2993589184037,
28.376,1.04,1,1,8,1,46.9734641974019,-27.3219409282027,
28.387,1.051,1,1,8,1,46.9620413843283,-27.4734736294366,
28.397,1.061,1,1,8,1,46.9526669564221,-27.6392904564799,
28.408,1.072,1,1,8,1,46.9438557208902,-27.4810009660362,
28.419,1.083,1,1,8,1,46.9303481876573,-27.4385338623032,
28.429,1.093,1,1,8,1,46.9227905093453,-27.4592143599947,
28.44,1.104,1,1,8,1,46.9104456958527,-27.6898731641748,
28.451,1.115,1,1,8,1,46.8992681439743,-27.5882934759946,
28.461,1.125,1,1,8,1,46.8871504241809,-27.5785497799669,
28.472,1.136,1,1,8,1,46.8779304199903,-27.411647558213,
28.483,1.147,1,1,8,1,46.8661805919897,-27.6136676844002,
28.493,1.157,1,1,8,1,46.855420892518,-27.656785196414,
28.504,1.168,1,1,8,1,46.8451471735627,-27.7228037082753,
28.515,1.179,1,1,8,1,46.8340967941559,-27.6285110784764,
28.525,1.189,1,1,8,1,46.8248268293515,-27.3835971475822,
28.536,1.2,1,1,8,1,46.8132495925624,-27.9090441838801,
28.547,1.211,1,1,8,1,46.8010047002974,-27.7376802441748,
28.557,1.221,1,1,8,1,46.7916166467693,-27.943664960965,
28.568,1.232,1,1,8,1,46.7800666612241,-27.5159531613534,
28.579,1.243,1,1,8,1,46.7692797105084,-27.7732538486774,
28.589,1.253,1,1,8,1,46.7607500711636,-27.8316331702857,
28.6,1.264,1,1,8,1,46.7472788729225,-27.7990381871453,
28.611,1.275,1,1,8,1,46.7383222974231,-27.8873984305872,
28.621,1.285,1,1,8,1,46.7282529627972,-27.7578967563412,
28.632,1.296,1,1,8,1,46.7168710265894,-28.0022555616964,
28.643,1.307,1,1,8,1,46.7048168930318,-27.9122796543723,
28.653,1.317,1,1,8,1,46.6950064452231,-27.8089185931939,
28.664,1.328,1,1,8,1,46.6834382921819,-27.7616997805561,
28.675,1.339,1,1,8,1,46.6730374007551,-27.876610767128,
28.685,1.349,1,1,8,1,46.6626228837063,-28.0978034380499,
28.696,1.36,1,1,8,1,46.652358248499,-27.9542289171175,
28.707,1.371,1,1,8,1,46.6417529727428,-28.0189051851383,
28.717,1.381,1,1,8,1,46.6306526327221,-27.9859373564867,
28.728,1.392,1,1,8,1,46.6201745294375,-28.0350783948714,
28.739,1.403,1,1,8,1,46.6085337064126,-28.0680752226184,
28.749,1.413,1,1,8,1,46.599636175275,-27.808102475797,
28.76,1.424,1,1,8,1,46.5885494608763,-28.1379878987085,
28.771,1.435,1,1,8,1,46.5760456817941,-27.8449727541332,
28.781,1.445,1,1,8,1,46.5659400121763,-28.2921388039771,
28.792,1.456,1,1,8,1,46.557555712799,-28.0153962946045,
28.803,1.467,1,1,8,1,46.5452063574324,-28.2140939530135,
28.814,1.478,1,1,8,1,46.5350098503349,-27.9795161282371,
28.824,1.488,1,1,8,1,46.5234280716718,-28.1802312951348,
28.835,1.499,1,1,8,1,46.5112149725247,-28.0819947883723,
28.846,1.51,1,1,8,1,46.5016588696591,-28.2870308204727,
28.856,1.52,1,1,8,1,46.4914396531917,-28.0177037940465,
28.867,1.531,1,1,8,1,46.4797488695529,-28.2403878470135,
28.878,1.542,1,1,8,1,46.4683805589672,-28.2755430359979,
28.888,1.552,1,1,8,1,46.4597646240166,-28.3248663544103,
28.899,1.563,1,1,8,1,46.4494954469353,-28.3391421947639,
28.91,1.574,1,1,8,1,46.4377047420689,-28.149492254095,
28.92,1.584,1,1,8,1,46.4266543626621,-28.5364437538695,
28.931,1.595,1,1,8,1,46.4162171362434,-28.3854868918141,
28.942,1.606,1,1,8,1,46.4043719288891,-28.5619588150238,
28.952,1.616,1,1,8,1,46.3940618749419,-28.3401530203722,
28.963,1.627,1,1,8,1,46.384310471495,-28.3442543209961,
28.974,1.638,1,1,8,1,46.3740276687918,-28.3393659020706,
28.984,1.648,1,1,8,1,46.3637948267024,-28.5458726025766,
28.995,1.659,1,1,8,1,46.3509549489453,-28.456306825315,
29.006,1.67,1,1,8,1,46.3413488854659,-28.444396482594,
29.016,1.68,1,1,8,1,46.3304211366567,-28.6419673190133,
29.027,1.691,1,1,8,1,46.3210875856164,-28.6182460590411,
29.038,1.702,1,1,8,1,46.3095512256932,-28.607537107412,
29.048,1.712,1,1,8,1,46.2984826787905,-28.4344415074432,
29.059,1.723,1,1,8,1,46.2893535120796,-28.7693603447568,
29.07,1.734,1,1,8,1,46.2776627284408,-28.5860570632352,
29.08,1.744,1,1,8,1,46.2665351371763,-28.7713861387013,
29.091,1.755,1,1,8,1,46.2546308854602,-28.5994339316338,
29.102,1.766,1,1,8,1,46.2456970193306,-28.4798913752664,
29.112,1.776,1,1,8,1,46.233674678891,-28.786084537301,
29.123,1.787,1,1,8,1,46.2237052654927,-28.6114395570965,
29.134,1.798,1,1,8,1,46.2128683541632,-28.774344046424,
29.144,1.808,1,1,8,1,46.2019360634801,-28.6324929002993,
29.155,1.819,1,1,8,1,46.1911718221344,-28.8359298394292,
29.166,1.83,1,1,8,1,46.1809616894149,-28.8029040125869,
29.176,1.84,1,1,8,1,46.1706107586019,-28.8859698497689,
29.187,1.851,1,1,8,1,46.1582704869832,-28.6990002540532,
29.198,1.862,1,1,8,1,46.1479104724222,-28.7445992600809,
29.208,1.872,1,1,8,1,46.1397305573743,-28.8136336778556,
29.219,1.883,1,1,8,1,46.1296521390004,-29.0493093255262,
29.23,1.894,1,1,8,1,46.1144731961408,-28.9810578833252,
29.24,1.904,1,1,8,1,46.1071925721419,-28.8006503686077,
29.251,1.915,1,1,8,1,46.0967417201012,-28.9815384397619,
29.262,1.926,1,1,8,1,46.0852961976577,-28.9606052356684,
29.272,1.936,1,1,8,1,46.0736281233889,-29.0639041559283,
29.283,1.947,1,1,8,1,46.0643854098283,-28.833208067197,
29.294,1.958,1,1,8,1,46.0521632269333,-28.87986346884,
29.304,1.968,1,1,8,1,46.0424844934701,-29.1033346401085,
29.315,1.979,1,1,8,1,46.0305166555182,-29.1338085465626,
29.326,1.99,1,1,8,1,46.0196842860628,-29.0704786651103,
29.336,2,1,1,8,1,46.0099964688516,-28.9301644710375,
29.347,2.011,1,1,8,1,45.9988552519651,-29.0267066020877,
29.358,2.022,1,1,8,1,45.9883044786967,-29.1692040137653,
29.368,2.032,1,1,8,1,45.9792570657176,-29.0885202451276,
29.379,2.043,1,1,8,1,45.9651409213705,-29.0586097496683,
29.39,2.054,1,1,8,1,45.9566567007656,-29.091788857443,
29.4,2.064,1,1,8,1,45.9460468831354,-29.2654810102298,
29.411,2.075,1,1,8,1,45.9353416861515,-29.3062951655296,
